RamanShift:204		
0.351	-179.1	
4.587	-24.5	
8.82	-2.61	
13.049	-3.94	
17.275	-2.61	
21.497	-1.29	
25.716	-1.29	
29.931	-2.61	
34.142	0.04	
38.351	-0.29	
42.555	-0.29	
46.756	0.04	
50.954	-0.95	
55.148	-1.29	
59.339	4.02	
63.527	4.02	
67.71	-0.62	
71.891	-0.29	
76.068	0.7	
80.241	2.03	
84.411	2.03	
88.578	-1.29	
92.741	2.69	
96.901	1.37	
101.057	1.7	
105.21	5.02	
109.359	2.69	
113.505	4.02	
117.648	6.67	
121.787	2.36	
125.923	9	
130.055	10.99	
134.184	14.3	
138.31	9.99	
142.432	14.3	
146.551	13.31	
150.667	14.63	
154.779	15.96	
158.887	16.62	
162.993	22.93	
167.095	23.26	
171.193	28.9	
175.289	28.23	
179.381	29.89	
183.469	28.56	
187.554	35.2	
191.636	32.21	
195.715	33.87	
199.79	38.18	
203.862	36.86	
207.931	37.85	
211.996	42.16	
216.058	39.18	
220.116	37.19	
224.172	40.17	
228.224	37.85	
232.272	40.5	
236.318	39.18	
240.36	37.85	
244.399	39.84	
248.434	37.52	
252.466	41.5	
256.495	35.86	
260.521	31.55	
264.544	38.18	
268.563	38.85	
272.579	36.19	
276.591	35.2	
280.601	37.52	
284.607	36.19	
288.61	38.18	
292.609	37.85	
296.606	39.51	
300.599	37.19	
304.589	36.52	
308.575	37.85	
312.559	36.86	
316.539	39.51	
320.516	37.85	
324.49	39.84	
328.461	38.51	
332.428	34.2	
336.392	36.19	
340.353	34.87	
344.311	34.53	
348.266	32.88	
352.217	32.88	
356.165	36.19	
360.11	34.53	
364.052	41.17	
367.991	43.82	
371.926	45.81	
375.859	50.12	
379.788	45.81	
383.714	47.8	
387.637	48.13	
391.557	50.12	
395.473	63.39	
399.387	67.37	
403.297	77.32	
407.204	79.97	
411.108	86.94	
415.009	84.61	
418.907	73.01	
422.802	73.01	
426.693	65.71	
430.581	59.74	
434.467	60.07	
438.349	64.38	
442.228	56.09	
446.104	63.39	
449.977	58.08	
453.847	63.39	
457.713	62.39	
461.577	74.33	
465.438	92.91	
469.295	105.18	
473.149	124.41	
477.001	127.4	
480.849	131.71	
484.694	131.38	
488.536	116.12	
492.375	102.52	
496.211	81.63	
500.044	67.7	
503.874	56.09	
507.701	50.78	
511.525	40.84	
515.346	42.49	
519.163	41.83	
522.978	37.85	
526.79	42.49	
530.598	39.84	
534.404	44.82	
538.207	43.49	
542.006	48.13	
545.803	46.14	
549.596	46.47	
553.387	42.83	
557.175	41.5	
560.959	39.84	
564.741	35.2	
568.519	32.54	
572.295	32.21	
576.068	30.22	
579.837	33.87	
583.604	26.91	
587.368	26.91	
591.128	28.9	
594.886	32.21	
598.641	29.56	
602.393	28.56	
606.142	30.22	
609.887	26.91	
613.63	29.56	
617.37	27.24	
621.108	30.89	
624.842	28.9	
628.573	34.2	
632.301	30.22	
636.027	34.87	
639.749	35.53	
643.468	36.86	
647.185	37.19	
650.899	40.17	
654.609	43.49	
658.317	52.11	
662.022	48.8	
665.724	56.42	
669.423	52.44	
673.119	57.75	
676.813	49.79	
680.503	41.5	
684.191	39.18	
687.875	31.22	
691.557	25.91	
695.236	31.22	
698.912	26.57	
702.585	30.22	
706.256	27.57	
709.923	18.28	
713.588	22.93	
717.249	22.59	
720.908	23.26	
724.564	23.26	
728.217	23.26	
731.868	21.93	
735.515	22.93	
739.16	23.92	
742.801	21.27	
746.44	22.59	
750.076	23.59	
753.71	26.91	
757.34	22.59	
760.968	26.91	
764.593	32.88	
768.215	32.54	
771.834	34.87	
775.45	39.18	
779.064	41.5	
782.675	39.18	
786.283	41.17	
789.888	44.48	
793.49	49.46	
797.09	62.06	
800.686	71.35	
804.281	94.56	
807.872	123.75	
811.46	141	
815.046	138.34	
818.629	130.38	
822.209	113.14	
825.786	108.16	
829.361	111.15	
832.933	127.07	
836.502	142.66	
840.068	158.91	
843.632	169.52	
847.193	180.8	
850.751	162.56	
854.306	141.99	
857.859	130.72	
861.409	116.12	
864.956	106.5	
868.5	87.27	
872.042	75.66	
875.581	58.41	
879.117	50.12	
882.651	45.48	
886.182	40.84	
889.71	52.44	
893.235	53.77	
896.758	53.11	
900.278	62.39	
903.795	70.35	
907.31	69.36	
910.822	72.67	
914.331	82.29	
917.838	82.62	
921.341	83.62	
924.843	79.97	
928.341	65.38	
931.837	56.75	
935.33	46.14	
938.821	40.84	
942.308	35.86	
945.793	30.89	
949.276	35.53	
952.756	31.55	
956.233	32.88	
959.707	38.18	
963.179	40.84	
966.649	46.14	
970.115	46.81	
973.579	47.8	
977.04	44.48	
980.499	44.48	
983.955	41.5	
987.408	40.17	
990.859	46.81	
994.307	44.15	
997.753	43.49	
1001.196	47.47	
1004.636	52.11	
1008.074	53.11	
1011.509	62.72	
1014.941	72.67	
1018.371	84.95	
1021.798	92.91	
1025.223	102.52	
1028.645	118.78	
1032.064	127.73	
1035.481	147.3	
1038.896	152.27	
1042.307	160.9	
1045.716	166.54	
1049.123	166.21	
1052.527	170.52	
1055.928	165.87	
1059.327	158.91	
1062.723	158.25	
1066.117	147.96	
1069.508	145.97	
1072.897	131.38	
1076.283	132.04	
1079.666	130.38	
1083.047	121.76	
1086.425	117.45	
1089.801	112.14	
1093.174	111.81	
1096.545	114.13	
1099.913	114.8	
1103.279	108.16	
1106.642	112.47	
1110.002	111.15	
1113.36	105.18	
1116.716	92.91	
1120.069	77.65	
1123.419	67.37	
1126.767	58.74	
1130.113	42.83	
1133.456	41.5	
1136.796	38.85	
1140.134	39.51	
1143.47	28.9	
1146.802	37.85	
1150.133	34.87	
1153.461	35.2	
1156.786	37.19	
1160.109	33.21	
1163.43	35.2	
1166.748	32.88	
1170.063	36.86	
1173.376	44.82	
1176.687	43.16	
1179.995	50.45	
1183.3	50.79	
1186.603	55.43	
1189.904	52.78	
1193.202	57.75	
1196.498	61.4	
1199.791	64.05	
1203.082	59.74	
1206.37	64.05	
1209.656	69.36	
1212.94	68.36	
1216.221	72.34	
1219.499	72.34	
1222.775	72.01	
1226.049	76.32	
1229.32	74	
1232.589	85.94	
1235.856	86.27	
1239.12	89.59	
1242.381	91.25	
1245.64	91.58	
1248.897	92.24	
1252.151	91.25	
1255.403	93.9	
1258.652	91.91	
1261.9	94.23	
1265.144	92.57	
1268.386	90.58	
1271.626	86.6	
1274.864	87.6	
1278.099	82.62	
1281.331	88.59	
1284.562	82.29	
1287.789	82.62	
1291.015	76.66	
1294.238	77.32	
1297.459	76.66	
1300.677	85.61	
1303.893	83.95	
1307.106	82.29	
1310.318	87.27	
1313.526	85.28	
1316.733	79.97	
1319.937	82.96	
1323.139	82.96	
1326.338	75.33	
1329.535	79.31	
1332.73	77.32	
1335.922	78.65	
1339.112	85.94	
1342.3	86.27	
1345.485	81.63	
1348.668	84.28	
1351.848	83.95	
1355.027	80.64	
1358.203	82.63	
1361.376	87.27	
1364.547	82.96	
1367.716	84.62	
1370.883	80.64	
1374.047	83.62	
1377.209	80.3	
1380.369	81.96	
1383.526	80.97	
1386.681	78.65	
1389.834	80.64	
1392.984	80.3	
1396.132	79.97	
1399.278	77.32	
1402.421	75.66	
1405.562	77.98	
1408.701	80.3	
1411.838	79.97	
1414.972	80.97	
1418.104	83.62	
1421.234	79.31	
1424.361	79.64	
1427.486	83.62	
1430.609	79.97	
1433.73	83.95	
1436.848	83.95	
1439.964	88.93	
1443.078	101.86	
1446.189	111.81	
1449.299	121.76	
1452.405	133.7	
1455.51	141.99	
1458.613	140.34	
1461.713	141.33	
1464.811	141.66	
1467.906	123.09	
1471	112.48	
1474.091	94.23	
1477.18	84.62	
1480.267	67.37	
1483.351	61.07	
1486.433	54.43	
1489.513	48.8	
1492.591	38.85	
1495.666	43.82	
1498.74	40.84	
1501.811	34.53	
1504.879	40.5	
1507.946	35.53	
1511.01	36.19	
1514.073	36.52	
1517.132	30.89	
1520.19	33.54	
1523.246	31.22	
1526.299	30.55	
1529.35	33.87	
1532.399	31.88	
1535.446	29.89	
1538.49	32.54	
1541.532	26.91	
1544.572	31.22	
1547.61	29.89	
1550.646	30.22	
1553.68	31.55	
1556.711	27.57	
1559.74	29.23	
1562.767	31.22	
1565.792	27.24	
1568.814	28.56	
1571.835	29.89	
1574.853	31.22	
1577.869	29.89	
1580.883	30.22	
1583.895	25.58	
1586.904	21.93	
1589.912	32.21	
1592.917	25.91	
1595.92	24.92	
1598.921	28.9	
1601.92	25.91	
1604.917	32.21	
1607.911	25.25	
1610.903	28.56	
1613.894	27.9	
1616.882	30.55	
1619.868	22.59	
1622.851	27.24	
1625.833	27.9	
1628.812	22.59	
1631.79	25.91	
1634.765	21.6	
1637.738	24.58	
1640.709	22.59	
1643.678	24.58	
1646.645	28.56	
1649.609	25.91	
1652.572	23.92	
1655.532	24.58	
1658.49	21.93	
1661.447	19.61	
1664.401	20.94	
1667.353	23.59	
1670.302	20.94	
1673.25	25.25	
1676.196	18.28	
1679.139	21.27	
1682.081	20.27	
1685.02	18.95	
1687.957	19.61	
1690.893	21.6	
1693.826	25.25	
1696.757	16.29	
1699.686	21.93	
1702.612	21.93	
1705.537	15.96	
1708.46	20.6	
1711.38	21.27	
1714.299	17.95	
1717.215	18.95	
1720.13	19.61	
1723.042	21.27	
1725.952	18.95	
1728.86	16.62	
1731.767	21.27	
1734.671	19.94	
1737.573	20.6	
1740.473	16.96	
1743.37	17.95	
1746.266	20.6	
1749.16	18.61	
1752.052	19.94	
1754.942	14.3	
1757.829	16.62	
1760.715	17.95	
1763.598	19.28	
1766.48	17.95	
1769.36	18.28	
1772.237	13.64	
1775.112	14.3	
1777.986	21.27	
1780.857	20.27	
1783.727	23.26	
1786.594	15.63	
1789.459	16.29	
1792.323	18.61	
1795.184	15.96	
1798.043	19.61	
1800.9	16.29	
1803.756	16.62	
1806.609	15.63	
1809.46	19.61	
1812.309	22.59	
1815.157	20.27	
1818.002	20.27	
1820.845	15.96	
1823.686	16.29	
1826.526	20.94	
1829.363	17.62	
1832.198	18.95	
1835.031	21.6	
1837.863	18.28	
1840.692	17.62	
1843.519	18.28	
1846.345	20.6	
1849.168	18.95	
1851.989	16.96	
1854.809	18.95	
1857.626	15.3	
1860.441	17.29	
1863.255	17.29	
1866.066	16.96	
1868.876	16.96	
1871.684	19.61	
1874.489	17.62	
1877.293	18.61	
1880.095	14.3	
1882.894	18.95	
1885.692	16.29	
1888.488	18.95	
1891.282	16.62	
1894.074	18.28	
1896.864	13.64	
1899.652	13.31	
1902.438	15.63	
1905.222	12.98	
1908.004	16.62	
1910.785	19.28	
1913.563	14.3	
1916.339	12.31	
1919.114	15.96	
1921.886	11.98	
1924.657	14.97	
1927.426	14.63	
1930.193	13.97	
1932.957	16.62	
1935.72	16.62	
1938.481	15.96	
1941.24	17.95	
1943.998	17.62	
1946.753	20.27	
1949.506	15.96	
1952.258	12.31	
1955.007	17.62	
1957.755	11.65	
1960.501	15.63	
1963.245	14.97	
1965.986	11.98	
1968.726	13.31	
1971.465	15.63	
1974.201	5.68	
1976.935	17.62	
1979.668	14.3	
1982.398	12.98	
1985.127	12.98	
1987.854	15.63	
1990.579	14.63	
1993.302	10.99	
1996.023	14.97	
1998.742	11.98	
2001.46	10.99	
2004.175	14.63	
2006.889	12.64	
2009.6	13.31	
2012.31	9	
2015.018	13.31	
2017.725	9	
2020.429	13.31	
2023.131	16.29	
2025.832	13.31	
2028.531	11.32	
2031.228	10.65	
2033.923	8	
2036.616	11.65	
2039.307	11.98	
2041.997	12.98	
2044.684	10.99	
2047.37	14.97	
2050.054	10.65	
2052.736	11.65	
2055.416	12.31	
2058.095	11.65	
2060.771	9.33	
2063.446	9	
2066.119	9.66	
2068.79	12.31	
2071.459	9	
2074.127	7.01	
2076.792	13.31	
2079.456	6.01	
2082.118	8.66	
2084.778	8	
2087.436	9.99	
2090.093	8.33	
2092.747	8.66	
2095.4	11.32	
2098.051	11.98	
2100.7	7.34	
2103.348	12.98	
2105.993	10.32	
2108.637	9.99	
2111.279	7.34	
2113.919	9	
2116.558	7.67	
2119.194	11.32	
2121.829	13.31	
2124.462	8.66	
2127.093	12.64	
2129.723	6.34	
2132.35	9.33	
2134.976	13.97	
2137.6	13.31	
2140.223	12.98	
2142.843	8	
2145.462	11.65	
2148.079	8.33	
2150.694	7.01	
2153.307	9.99	
2155.919	8.66	
2158.528	9.99	
2161.137	9.66	
2163.743	10.65	
2166.347	9.99	
2168.95	10.32	
2171.551	8.33	
2174.15	9.66	
2176.748	11.98	
2179.343	10.65	
2181.937	7.34	
2184.529	8.66	
2187.12	9.99	
2189.708	9.66	
2192.295	10.99	
2194.88	8.33	
2197.464	6.34	
2200.045	7.67	
2202.625	9.99	
2205.203	8	
2207.78	10.32	
2210.355	11.65	
2212.928	8.66	
2215.499	13.31	
2218.068	7.67	
2220.636	5.68	
2223.202	9	
2225.766	11.65	
2228.329	10.32	
2230.889	6.34	
2233.449	8.33	
2236.006	6.67	
2238.562	8.33	
2241.115	9.33	
2243.668	10.32	
2246.218	5.35	
2248.767	6.67	
2251.314	8	
2253.859	6.67	
2256.403	6.67	
2258.945	9	
2261.485	9.33	
2264.023	8	
2266.56	9	
2269.095	8.66	
2271.629	7.67	
2274.16	12.31	
2276.69	9	
2279.219	9.66	
2281.745	11.98	
2284.27	8.33	
2286.793	6.67	
2289.315	6.01	
2291.835	11.98	
2294.353	8	
2296.869	8.33	
2299.384	8.66	
2301.897	10.65	
2304.408	9.99	
2306.918	6.34	
2309.426	8.33	
2311.932	5.02	
2314.437	4.68	
2316.94	11.98	
2319.441	9	
2321.941	6.67	
2324.439	9.33	
2326.935	13.64	
2329.43	7.01	
2331.923	8.66	
2334.414	7.34	
2336.904	9.99	
2339.392	6.67	
2341.878	10.65	
2344.363	5.02	
2346.846	8.66	
2349.328	5.02	
2351.807	10.65	
2354.285	7.34	
2356.762	7.34	
2359.237	6.67	
2361.71	8	
2364.181	7.34	
2366.651	12.64	
2369.119	8.66	
2371.586	8.66	
2374.051	7.67	
2376.514	9	
2378.976	6.67	
2381.436	9.99	
2383.894	5.35	
2386.351	8.66	
2388.806	10.65	
2391.259	10.32	
2393.711	7.34	
2396.161	12.31	
2398.61	3.36	
2401.057	6.34	
2403.502	7.34	
2405.946	8	
2408.388	5.68	
2410.829	6.67	
2413.268	7.34	
2415.705	10.99	
2418.141	8.33	
2420.575	7.01	
2423.007	8	
2425.438	8.33	
2427.867	8.66	
2430.295	8	
2432.721	6.01	
2435.145	2.36	
2437.568	8.33	
2439.989	6.67	
2442.409	2.69	
2444.827	4.02	
2447.243	7.01	
2449.658	8	
2452.071	10.32	
2454.483	8	
2456.893	8	
2459.302	4.68	
2461.709	9	
2464.114	9.33	
2466.518	11.65	
2468.92	6.34	
2471.32	3.69	
2473.719	7.01	
2476.117	6.67	
2478.512	6.01	
2480.907	9.33	
2483.299	9	
2485.691	7.34	
2488.08	9	
2490.468	8.33	
2492.854	6.01	
2495.239	8.33	
2497.623	7.67	
2500.004	4.35	
2502.384	11.32	
2504.763	10.65	
2507.14	5.35	
2509.515	4.35	
2511.889	7.34	
2514.262	4.68	
2516.633	5.68	
2519.002	6.01	
2521.369	8	
2523.736	4.02	
2526.1	6.67	
2528.463	9	
2530.825	8	
2533.185	8	
2535.543	5.35	
2537.9	3.03	
2540.255	9.99	
2542.609	7.01	
2544.961	6.34	
2547.312	8	
2549.661	1.04	
2552.009	5.35	
2554.355	7.67	
2556.7	6.67	
2559.043	8.66	
2561.384	3.36	
2563.724	6.01	
2566.063	6.67	
2568.4	9	
2570.735	8	
2573.069	6.67	
2575.402	4.02	
2577.733	5.02	
2580.062	7.01	
2582.39	11.32	
2584.716	7.01	
2587.041	4.02	
2589.364	4.35	
2591.686	5.35	
2594.006	9.66	
2596.325	4.35	
2598.643	4.68	
2600.958	6.67	
2603.273	8.33	
2605.585	9	
2607.897	6.34	
2610.206	8.33	
2612.515	6.01	
2614.822	6.67	
2617.127	7.01	
2619.431	7.34	
2621.733	5.35	
2624.034	8.66	
2626.333	5.35	
2628.631	5.68	
2630.927	4.68	
2633.222	4.68	
2635.515	5.02	
2637.807	6.34	
2640.098	8.66	
2642.387	7.67	
2644.674	4.35	
2646.96	7.01	
2649.245	8	
2651.528	7.01	
2653.809	9.66	
2656.089	6.01	
2658.368	11.65	
2660.645	8.66	
2662.921	7.67	
2665.195	8	
2667.468	10.32	
2669.739	9	
2672.009	5.02	
2674.277	8.33	
2676.544	8.33	
2678.809	9.99	
2681.073	8.33	
2683.336	10.65	
2685.597	9.66	
2687.856	12.31	
2690.115	10.99	
2692.371	9.33	
2694.626	7.67	
2696.88	11.65	
2699.133	9.99	
2701.383	8.66	
2703.633	10.65	
2705.881	10.65	
2708.127	13.31	
2710.373	10.32	
2712.616	12.98	
2714.859	12.64	
2717.099	14.3	
2719.339	11.98	
2721.577	12.31	
2723.813	12.31	
2726.048	15.3	
2728.282	10.65	
2730.514	15.3	
2732.745	13.31	
2734.974	11.98	
2737.202	15.96	
2739.428	16.29	
2741.653	12.64	
2743.877	13.31	
2746.099	12.31	
2748.32	20.27	
2750.539	12.98	
2752.757	17.95	
2754.974	14.97	
2757.189	13.97	
2759.403	12.64	
2761.615	15.96	
2763.826	13.97	
2766.035	14.97	
2768.243	14.3	
2770.45	12.98	
2772.655	16.29	
2774.859	16.96	
2777.062	16.62	
2779.263	16.62	
2781.462	15.63	
2783.66	16.29	
2785.857	15.96	
2788.053	18.61	
2790.247	17.95	
2792.439	18.28	
2794.631	19.28	
2796.82	18.61	
2799.009	19.28	
2801.196	18.95	
2803.382	22.26	
2805.566	21.93	
2807.749	21.93	
2809.93	19.28	
2812.11	21.93	
2814.289	24.25	
2816.466	24.92	
2818.642	26.57	
2820.817	23.59	
2822.99	23.92	
2825.162	33.21	
2827.332	32.54	
2829.502	33.54	
2831.669	33.87	
2833.836	37.85	
2836	40.5	
2838.164	42.16	
2840.326	41.5	
2842.487	39.51	
2844.647	45.15	
2846.805	48.13	
2848.961	50.12	
2851.117	46.14	
2853.271	52.44	
2855.423	55.1	
2857.575	50.78	
2859.725	56.75	
2861.873	60.4	
2864.02	56.75	
2866.166	64.71	
2868.311	66.04	
2870.454	67.7	
2872.596	73.67	
2874.736	73.01	
2876.875	75	
2879.013	73.01	
2881.149	81.63	
2883.284	80.3	
2885.418	81.3	
2887.551	81.63	
2889.682	87.27	
2891.811	76.32	
2893.94	76.99	
2896.067	82.62	
2898.192	82.29	
2900.317	76.99	
2902.439	77.32	
2904.561	71.68	
2906.681	76.65	
2908.8	72.01	
2910.918	69.03	
2913.034	75.33	
2915.149	70.02	
2917.263	74.66	
2919.375	69.03	
2921.486	73.01	
2923.596	69.36	
2925.704	68.69	
2927.811	73.34	
2929.917	70.35	
2932.021	72.34	
2934.124	71.02	
2936.226	68.03	
2938.327	69.03	
2940.426	62.72	
2942.524	64.38	
2944.62	62.72	
2946.715	66.37	
2948.809	61.07	
2950.902	59.41	
2952.993	59.08	
2955.083	54.43	
2957.171	54.76	
2959.259	53.77	
2961.345	45.15	
2963.429	50.78	
2965.513	44.48	
2967.595	44.81	
2969.676	42.82	
2971.755	37.85	
2973.833	35.86	
2975.91	34.53	
2977.986	27.24	
2980.06	29.23	
2982.133	31.22	
2984.205	24.58	
2986.275	25.25	
2988.345	21.6	
2990.412	20.94	
2992.479	16.96	
2994.544	14.3	
2996.608	14.63	
2998.671	13.31	
3000.732	14.97	
3002.792	14.97	
3004.851	11.98	
3006.909	13.64	
3008.965	10.99	
3011.02	5.35	
3013.074	10.32	
3015.126	10.65	
3017.177	7.34	
3019.227	8.66	
3021.276	5.02	
3023.323	8	
3025.369	3.69	
3027.414	7.34	
3029.458	4.35	
3031.5	6.67	
3033.541	6.67	
3035.581	7.01	
3037.619	6.67	
3039.656	4.02	
3041.692	7.34	
3043.727	4.02	
3045.76	4.35	
3047.793	6.01	
3049.824	6.34	
3051.853	-0.62	
3053.882	2.03	
3055.909	-0.62	
