RamanShift:204		
0.351	-819.73	
4.587	-112.89	
8.82	-35.94	
13.049	-27.32	
17.275	-21.68	
21.497	-15.05	
25.716	-13.72	
29.931	-13.06	
34.142	-8.08	
38.351	-10.07	
42.555	-6.43	
46.756	-5.43	
50.954	-3.11	
55.148	-6.09	
59.339	-3.77	
63.527	-1.78	
67.71	-3.44	
71.891	-5.1	
76.068	-2.78	
80.241	-3.44	
84.411	-0.79	
88.578	-0.79	
92.741	-3.44	
96.901	0.21	
101.057	2.53	
105.21	1.87	
109.359	1.87	
113.505	1.53	
117.648	2.86	
121.787	3.19	
125.923	3.52	
130.055	7.84	
134.184	6.51	
138.31	8.17	
142.432	8.83	
146.551	11.15	
150.667	16.46	
154.779	18.45	
158.887	13.14	
162.993	18.78	
167.095	20.44	
171.193	23.09	
175.289	28.07	
179.381	29.06	
183.469	25.74	
187.554	28.4	
191.636	29.72	
195.715	32.05	
199.79	34.04	
203.862	32.38	
207.931	36.36	
211.996	37.68	
216.058	39.01	
220.116	39.34	
224.172	40.67	
228.224	41.33	
232.272	47.63	
236.318	46.64	
240.36	51.28	
244.399	50.95	
248.434	52.28	
252.466	53.6	
256.495	55.59	
260.521	55.26	
264.544	52.61	
268.563	51.95	
272.579	55.93	
276.591	55.93	
280.601	55.59	
284.607	53.6	
288.61	50.62	
292.609	54.93	
296.606	51.28	
300.599	55.26	
304.589	52.61	
308.575	56.59	
312.559	50.62	
316.539	46.64	
320.516	49.29	
324.49	49.29	
328.461	41	
332.428	42	
336.392	44.65	
340.353	44.98	
344.311	44.65	
348.266	42	
352.217	41.33	
356.165	39.34	
360.11	38.02	
364.052	33.37	
367.991	32.71	
371.926	30.06	
375.859	29.39	
379.788	33.04	
383.714	30.39	
387.637	36.03	
391.557	37.68	
395.473	35.69	
399.387	29.72	
403.297	29.72	
407.204	39.01	
411.108	38.68	
415.009	33.04	
418.907	26.08	
422.802	28.4	
426.693	25.08	
430.581	24.75	
434.467	24.75	
438.349	23.42	
442.228	23.75	
446.104	21.43	
449.977	22.76	
453.847	19.77	
457.713	19.77	
461.577	15.13	
465.438	15.8	
469.295	21.1	
473.149	19.11	
477.001	21.76	
480.849	17.45	
484.694	22.1	
488.536	18.45	
492.375	23.75	
496.211	19.44	
500.044	23.09	
503.874	21.1	
507.701	20.77	
511.525	28.73	
515.346	27.07	
519.163	28.4	
522.978	31.38	
526.79	31.38	
530.598	28.07	
534.404	27.73	
538.207	21.76	
542.006	25.74	
545.803	26.74	
549.596	25.41	
553.387	26.74	
557.175	25.08	
560.959	26.08	
564.741	23.75	
568.519	20.44	
572.295	20.44	
576.068	19.44	
579.837	12.15	
583.604	18.45	
587.368	13.14	
591.128	12.48	
594.886	17.12	
598.641	17.45	
602.393	10.82	
606.142	13.81	
609.887	11.15	
613.63	13.14	
617.37	11.82	
621.108	10.16	
624.842	13.81	
628.573	11.82	
632.301	12.48	
636.027	11.82	
639.749	11.48	
643.468	10.16	
647.185	8.17	
650.899	6.51	
654.609	6.84	
658.317	8.17	
662.022	10.49	
665.724	11.15	
669.423	13.14	
673.119	7.84	
676.813	14.47	
680.503	14.14	
684.191	12.48	
687.875	9.16	
691.557	11.82	
695.236	10.49	
698.912	8.17	
702.585	10.16	
706.256	8.83	
709.923	10.49	
713.588	8.5	
717.249	9.16	
720.908	10.49	
724.564	10.82	
728.217	10.82	
731.868	8.83	
735.515	11.82	
739.16	10.49	
742.801	11.82	
746.44	18.12	
750.076	14.8	
753.71	19.11	
757.34	19.11	
760.968	19.44	
764.593	19.77	
768.215	18.12	
771.834	27.73	
775.45	27.4	
779.064	34.04	
782.675	34.7	
786.283	48.96	
789.888	53.6	
793.49	59.24	
797.09	69.86	
800.686	68.53	
804.281	69.86	
807.872	75.49	
811.46	72.84	
815.046	72.84	
818.629	77.82	
822.209	77.82	
825.786	77.15	
829.361	73.17	
832.933	78.81	
836.502	76.49	
840.068	72.18	
843.632	60.9	
847.193	54.93	
850.751	49.62	
854.306	57.58	
857.859	55.26	
861.409	65.54	
864.956	71.51	
868.5	70.52	
872.042	66.21	
875.581	75.83	
879.117	80.14	
882.651	79.14	
886.182	69.19	
889.71	64.22	
893.235	53.94	
896.758	45.98	
900.278	42.66	
903.795	35.03	
907.31	35.36	
910.822	31.38	
914.331	31.05	
917.838	31.38	
921.341	26.08	
924.843	30.39	
928.341	28.07	
931.837	27.73	
935.33	21.76	
938.821	28.4	
942.308	22.1	
945.793	22.43	
949.276	18.12	
952.756	22.43	
956.233	19.11	
959.707	20.77	
963.179	16.79	
966.649	19.44	
970.115	21.43	
973.579	25.08	
977.04	23.75	
980.499	20.77	
983.955	25.08	
987.408	27.4	
990.859	29.39	
994.307	31.38	
997.753	33.37	
1001.196	38.02	
1004.636	35.03	
1008.074	36.36	
1011.509	39.01	
1014.941	39.34	
1018.371	42.33	
1021.798	50.29	
1025.223	50.29	
1028.645	56.26	
1032.064	54.93	
1035.481	57.92	
1038.896	59.57	
1042.307	65.21	
1045.716	69.86	
1049.123	65.54	
1052.527	69.19	
1055.928	68.53	
1059.327	70.19	
1062.723	74.5	
1066.117	71.85	
1069.508	68.53	
1072.897	66.54	
1076.283	66.21	
1079.666	69.52	
1083.047	62.23	
1086.425	62.23	
1089.801	59.91	
1093.174	61.23	
1096.545	63.55	
1099.913	60.9	
1103.279	60.9	
1106.642	63.22	
1110.002	71.18	
1113.36	72.84	
1116.716	78.15	
1120.069	75.49	
1123.419	77.48	
1126.767	73.5	
1130.113	74.83	
1133.456	69.19	
1136.796	68.53	
1140.134	61.56	
1143.47	55.93	
1146.802	45.64	
1150.133	44.32	
1153.461	35.03	
1156.786	33.04	
1160.109	30.72	
1163.43	27.07	
1166.748	24.09	
1170.063	26.41	
1173.376	29.39	
1176.687	24.42	
1179.995	25.08	
1183.3	30.39	
1186.603	24.09	
1189.904	29.06	
1193.202	26.41	
1196.498	36.03	
1199.791	34.7	
1203.082	31.38	
1206.37	35.69	
1209.656	40.34	
1212.94	41	
1216.221	43.32	
1219.499	52.28	
1222.775	49.96	
1226.049	56.92	
1229.32	63.55	
1232.589	60.57	
1235.856	64.55	
1239.12	69.52	
1242.381	67.53	
1245.64	64.55	
1248.897	63.89	
1252.151	65.88	
1255.403	66.87	
1258.652	64.88	
1261.9	70.85	
1265.144	79.47	
1268.386	89.76	
1271.626	94.07	
1274.864	104.68	
1278.099	100.37	
1281.331	99.04	
1284.562	94.4	
1287.789	92.41	
1291.015	94.4	
1294.238	78.81	
1297.459	70.52	
1300.677	71.18	
1303.893	65.21	
1307.106	59.91	
1310.318	65.54	
1313.526	55.26	
1316.733	52.61	
1319.937	55.93	
1323.139	57.25	
1326.338	54.27	
1329.535	53.94	
1332.73	51.95	
1335.922	53.27	
1339.112	54.93	
1342.3	53.27	
1345.485	53.6	
1348.668	58.58	
1351.848	57.92	
1355.027	55.59	
1358.203	59.91	
1361.376	56.92	
1364.547	55.26	
1367.716	56.26	
1370.883	59.24	
1374.047	59.24	
1377.209	61.9	
1380.369	55.26	
1383.526	55.93	
1386.681	59.24	
1389.834	61.56	
1392.984	61.56	
1396.132	59.57	
1399.278	62.56	
1402.421	66.87	
1405.562	58.25	
1408.701	67.2	
1411.838	62.23	
1414.972	62.89	
1418.104	63.55	
1421.234	65.88	
1424.361	67.53	
1427.486	71.85	
1430.609	75.49	
1433.73	81.13	
1436.848	87.77	
1439.964	95.39	
1443.078	104.68	
1446.189	111.65	
1449.299	110.65	
1452.405	119.61	
1455.51	110.65	
1458.613	117.62	
1461.713	118.28	
1464.811	119.27	
1467.906	114.63	
1471	116.95	
1474.091	101.36	
1477.18	91.41	
1480.267	77.48	
1483.351	65.88	
1486.433	60.24	
1489.513	53.27	
1492.591	42.66	
1495.666	41	
1498.74	39.01	
1501.811	37.68	
1504.879	39.34	
1507.946	36.36	
1511.01	34.7	
1514.073	37.02	
1517.132	30.06	
1520.19	33.7	
1523.246	31.71	
1526.299	34.37	
1529.35	26.41	
1532.399	30.39	
1535.446	29.06	
1538.49	27.73	
1541.532	27.07	
1544.572	26.41	
1547.61	26.08	
1550.646	26.08	
1553.68	26.41	
1556.711	25.74	
1559.74	23.75	
1562.767	24.42	
1565.792	23.75	
1568.814	24.75	
1571.835	26.74	
1574.853	21.76	
1577.869	25.08	
1580.883	21.43	
1583.895	22.43	
1586.904	23.09	
1589.912	22.43	
1592.917	18.45	
1595.92	17.78	
1598.921	22.43	
1601.92	18.12	
1604.917	20.44	
1607.911	19.77	
1610.903	19.77	
1613.894	19.44	
1616.882	20.11	
1619.868	20.11	
1622.851	17.45	
1625.833	19.11	
1628.812	14.8	
1631.79	19.11	
1634.765	24.09	
1637.738	17.45	
1640.709	15.8	
1643.678	17.78	
1646.645	17.78	
1649.609	17.78	
1652.572	20.77	
1655.532	19.44	
1658.49	18.12	
1661.447	19.77	
1664.401	18.12	
1667.353	19.77	
1670.302	14.47	
1673.25	18.45	
1676.196	13.81	
1679.139	20.77	
1682.081	15.8	
1685.02	20.44	
1687.957	14.47	
1690.893	14.47	
1693.826	20.44	
1696.757	17.78	
1699.686	15.8	
1702.612	12.81	
1705.537	12.15	
1708.46	13.47	
1711.38	11.48	
1714.299	15.8	
1717.215	13.47	
1720.13	11.82	
1723.042	11.82	
1725.952	14.47	
1728.86	11.48	
1731.767	11.48	
1734.671	12.48	
1737.573	15.13	
1740.473	12.15	
1743.37	14.47	
1746.266	12.81	
1749.16	14.14	
1752.052	10.16	
1754.942	11.15	
1757.829	13.14	
1760.715	9.16	
1763.598	10.82	
1766.48	11.15	
1769.36	14.14	
1772.237	14.14	
1775.112	15.13	
1777.986	12.48	
1780.857	12.15	
1783.727	10.82	
1786.594	9.49	
1789.459	14.47	
1792.323	11.15	
1795.184	11.15	
1798.043	10.49	
1800.9	14.14	
1803.756	13.81	
1806.609	14.14	
1809.46	11.48	
1812.309	9.83	
1815.157	10.16	
1818.002	8.17	
1820.845	9.83	
1823.686	8.5	
1826.526	9.83	
1829.363	9.16	
1832.198	11.82	
1835.031	10.16	
1837.863	6.84	
1840.692	11.82	
1843.519	9.16	
1846.345	8.5	
1849.168	15.46	
1851.989	8.83	
1854.809	7.84	
1857.626	9.83	
1860.441	12.81	
1863.255	12.48	
1866.066	9.49	
1868.876	11.82	
1871.684	10.49	
1874.489	7.5	
1877.293	8.83	
1880.095	10.82	
1882.894	9.16	
1885.692	8.17	
1888.488	10.16	
1891.282	10.49	
1894.074	12.15	
1896.864	10.16	
1899.652	11.48	
1902.438	8.83	
1905.222	9.49	
1908.004	2.53	
1910.785	6.51	
1913.563	6.51	
1916.339	6.84	
1919.114	8.83	
1921.886	7.17	
1924.657	7.84	
1927.426	7.84	
1930.193	6.84	
1932.957	6.84	
1935.72	7.17	
1938.481	4.85	
1941.24	5.51	
1943.998	7.5	
1946.753	9.49	
1949.506	6.18	
1952.258	5.18	
1955.007	7.84	
1957.755	4.19	
1960.501	4.52	
1963.245	6.51	
1965.986	6.51	
1968.726	2.53	
1971.465	3.52	
1974.201	4.85	
1976.935	1.87	
1979.668	5.18	
1982.398	3.19	
1985.127	1.87	
1987.854	3.86	
1990.579	3.52	
1993.302	1.53	
1996.023	8.5	
1998.742	1.53	
2001.46	0.21	
2004.175	3.19	
2006.889	3.52	
2009.6	1.2	
2012.31	-0.46	
2015.018	1.87	
2017.725	0.21	
2020.429	-0.79	
2023.131	2.2	
2025.832	-0.12	
2028.531	1.2	
2031.228	0.54	
2033.923	3.19	
2036.616	4.19	
2039.307	4.85	
2041.997	-0.46	
2044.684	3.86	
2047.37	1.2	
2050.054	4.19	
2052.736	-0.12	
2055.416	3.19	
2058.095	2.53	
2060.771	-1.12	
2063.446	-1.12	
2066.119	3.19	
2068.79	1.53	
2071.459	-2.45	
2074.127	1.2	
2076.792	3.52	
2079.456	-0.79	
2082.118	1.53	
2084.778	-1.45	
2087.436	3.86	
2090.093	0.54	
2092.747	0.21	
2095.4	1.2	
2098.051	-1.12	
2100.7	-0.46	
2103.348	1.87	
2105.993	-5.1	
2108.637	-2.11	
2111.279	3.19	
2113.919	1.53	
2116.558	-0.79	
2119.194	0.54	
2121.829	1.2	
2124.462	-1.45	
2127.093	-0.79	
2129.723	-0.46	
2132.35	-0.12	
2134.976	1.53	
2137.6	1.2	
2140.223	-0.79	
2142.843	0.87	
2145.462	-0.46	
2148.079	-4.1	
2150.694	0.21	
2153.307	3.86	
2155.919	-2.11	
2158.528	-1.78	
2161.137	1.2	
2163.743	0.21	
2166.347	-1.45	
2168.95	-2.45	
2171.551	1.53	
2174.15	0.54	
2176.748	-0.46	
2179.343	3.19	
2181.937	-0.12	
2184.529	0.87	
2187.12	-2.11	
2189.708	3.52	
2192.295	-1.12	
2194.88	-0.46	
2197.464	0.21	
2200.045	0.87	
2202.625	-2.11	
2205.203	1.87	
2207.78	-2.45	
2210.355	-2.78	
2212.928	-1.12	
2215.499	-1.12	
2218.068	1.87	
2220.636	1.87	
2223.202	-2.11	
2225.766	-0.79	
2228.329	0.87	
2230.889	0.21	
2233.449	-1.12	
2236.006	0.21	
2238.562	-0.79	
2241.115	-0.12	
2243.668	-3.77	
2246.218	1.2	
2248.767	1.2	
2251.314	-0.79	
2253.859	-0.12	
2256.403	0.21	
2258.945	-2.45	
2261.485	1.2	
2264.023	-1.78	
2266.56	3.52	
2269.095	1.87	
2271.629	-0.12	
2274.16	0.87	
2276.69	-1.45	
2279.219	-1.12	
2281.745	-1.12	
2284.27	0.21	
2286.793	-2.45	
2289.315	0.87	
2291.835	-2.45	
2294.353	0.54	
2296.869	-1.78	
2299.384	2.2	
2301.897	0.54	
2304.408	-2.11	
2306.918	1.87	
2309.426	0.21	
2311.932	-0.79	
2314.437	0.54	
2316.94	-1.45	
2319.441	-0.79	
2321.941	1.2	
2324.439	-3.11	
2326.935	2.53	
2329.43	-0.12	
2331.923	-0.46	
2334.414	0.21	
2336.904	3.19	
2339.392	-0.12	
2341.878	0.87	
2344.363	-2.45	
2346.846	-1.45	
2349.328	0.21	
2351.807	2.53	
2354.285	1.53	
2356.762	0.21	
2359.237	-0.79	
2361.71	-0.79	
2364.181	-0.46	
2366.651	-2.11	
2369.119	-0.46	
2371.586	-1.78	
2374.051	-2.11	
2376.514	-3.77	
2378.976	1.2	
2381.436	0.21	
2383.894	-0.79	
2386.351	-3.11	
2388.806	-0.46	
2391.259	-0.79	
2393.711	0.87	
2396.161	-2.78	
2398.61	1.87	
2401.057	1.2	
2403.502	-1.12	
2405.946	-2.45	
2408.388	-0.12	
2410.829	-0.12	
2413.268	-3.11	
2415.705	-3.44	
2418.141	1.53	
2420.575	0.87	
2423.007	1.2	
2425.438	0.21	
2427.867	-1.45	
2430.295	0.54	
2432.721	0.54	
2435.145	-0.12	
2437.568	-1.45	
2439.989	-1.45	
2442.409	-1.12	
2444.827	-1.12	
2447.243	2.2	
2449.658	-1.45	
2452.071	-0.46	
2454.483	-0.46	
2456.893	-0.12	
2459.302	1.2	
2461.709	-0.46	
2464.114	-3.11	
2466.518	0.54	
2468.92	-0.79	
2471.32	0.87	
2473.719	-0.46	
2476.117	0.54	
2478.512	-1.78	
2480.907	-0.12	
2483.299	2.86	
2485.691	1.53	
2488.08	-0.12	
2490.468	-0.79	
2492.854	-0.12	
2495.239	4.19	
2497.623	1.2	
2500.004	-2.78	
2502.384	0.54	
2504.763	-2.45	
2507.14	3.19	
2509.515	0.87	
2511.889	1.53	
2514.262	3.52	
2516.633	1.53	
2519.002	1.53	
2521.369	5.51	
2523.736	2.53	
2526.1	1.53	
2528.463	-0.46	
2530.825	0.87	
2533.185	3.19	
2535.543	2.2	
2537.9	-1.45	
2540.255	0.21	
2542.609	-1.12	
2544.961	0.87	
2547.312	-1.45	
2549.661	0.21	
2552.009	-2.11	
2554.355	-0.79	
2556.7	1.53	
2559.043	3.86	
2561.384	2.86	
2563.724	0.87	
2566.063	1.2	
2568.4	1.2	
2570.735	-0.79	
2573.069	4.52	
2575.402	0.54	
2577.733	-0.12	
2580.062	2.53	
2582.39	0.21	
2584.716	-0.79	
2587.041	-0.12	
2589.364	3.52	
2591.686	2.2	
2594.006	4.52	
2596.325	1.53	
2598.643	-0.12	
2600.958	-1.12	
2603.273	0.21	
2605.585	-0.46	
2607.897	1.2	
2610.206	4.85	
2612.515	-3.44	
2614.822	0.87	
2617.127	-0.79	
2619.431	0.54	
2621.733	0.54	
2624.034	-0.79	
2626.333	2.2	
2628.631	2.53	
2630.927	0.54	
2633.222	0.87	
2635.515	2.2	
2637.807	1.87	
2640.098	3.52	
2642.387	0.87	
2644.674	-0.46	
2646.96	0.87	
2649.245	-1.12	
2651.528	2.53	
2653.809	4.85	
2656.089	1.2	
2658.368	2.86	
2660.645	3.86	
2662.921	4.52	
2665.195	2.2	
2667.468	4.52	
2669.739	4.19	
2672.009	5.18	
2674.277	3.19	
2676.544	3.86	
2678.809	7.17	
2681.073	6.84	
2683.336	4.52	
2685.597	5.51	
2687.856	2.86	
2690.115	8.83	
2692.371	7.84	
2694.626	8.83	
2696.88	7.84	
2699.133	8.17	
2701.383	7.84	
2703.633	7.17	
2705.881	7.84	
2708.127	9.49	
2710.373	9.16	
2712.616	2.53	
2714.859	10.49	
2717.099	11.48	
2719.339	8.83	
2721.577	6.84	
2723.813	11.15	
2726.048	8.5	
2728.282	8.5	
2730.514	11.15	
2732.745	12.48	
2734.974	9.49	
2737.202	10.82	
2739.428	12.81	
2741.653	14.8	
2743.877	7.84	
2746.099	10.16	
2748.32	15.46	
2750.539	13.14	
2752.757	9.49	
2754.974	13.81	
2757.189	11.82	
2759.403	12.15	
2761.615	12.81	
2763.826	15.13	
2766.035	19.77	
2768.243	14.47	
2770.45	15.79	
2772.655	15.8	
2774.859	17.45	
2777.062	16.46	
2779.263	20.77	
2781.462	19.44	
2783.66	18.45	
2785.857	21.76	
2788.053	21.43	
2790.247	23.09	
2792.439	24.42	
2794.631	21.1	
2796.82	24.75	
2799.009	25.41	
2801.196	25.41	
2803.382	28.4	
2805.566	26.74	
2807.749	29.06	
2809.93	31.71	
2812.11	28.4	
2814.289	29.72	
2816.466	33.37	
2818.642	37.02	
2820.817	32.05	
2822.99	39.01	
2825.162	35.36	
2827.332	32.38	
2829.502	42.33	
2831.669	40.67	
2833.836	40.34	
2836	42.99	
2838.164	43.65	
2840.326	46.64	
2842.487	49.62	
2844.647	45.98	
2846.805	52.28	
2848.961	54.6	
2851.117	59.57	
2853.271	57.92	
2855.423	58.58	
2857.575	55.93	
2859.725	64.88	
2861.873	64.88	
2864.02	66.54	
2866.166	66.87	
2868.311	67.87	
2870.454	70.52	
2872.596	73.17	
2874.736	72.18	
2876.875	74.17	
2879.013	67.87	
2881.149	71.51	
2883.284	73.17	
2885.418	74.17	
2887.551	68.86	
2889.682	70.19	
2891.811	67.2	
2893.94	63.89	
2896.067	63.55	
2898.192	61.9	
2900.317	59.24	
2902.439	58.25	
2904.561	59.57	
2906.681	57.92	
2908.8	58.25	
2910.918	55.26	
2913.034	59.57	
2915.149	56.26	
2917.263	57.58	
2919.375	52.28	
2921.486	49.29	
2923.596	51.61	
2925.704	48.96	
2927.811	50.62	
2929.917	50.29	
2932.021	51.28	
2934.124	50.62	
2936.226	47.97	
2938.327	48.96	
2940.426	50.62	
2942.524	45.98	
2944.62	43.65	
2946.715	45.64	
2948.809	42.99	
2950.902	45.64	
2952.993	38.68	
2955.083	38.35	
2957.171	37.02	
2959.259	35.03	
2961.345	31.05	
2963.429	32.38	
2965.513	23.09	
2967.595	29.72	
2969.676	23.09	
2971.755	27.4	
2973.833	24.09	
2975.91	15.8	
2977.986	20.11	
2980.06	15.79	
2982.133	14.47	
2984.205	12.48	
2986.275	15.79	
2988.345	14.14	
2990.412	10.82	
2992.479	9.16	
2994.544	6.51	
2996.608	8.83	
2998.671	7.84	
3000.732	5.18	
3002.792	4.19	
3004.851	2.53	
3006.909	6.51	
3008.965	2.86	
3011.02	5.51	
3013.074	3.52	
3015.126	-0.79	
3017.177	3.19	
3019.227	4.19	
3021.276	2.86	
3023.323	2.2	
3025.369	6.18	
3027.414	4.52	
3029.458	2.2	
3031.5	0.54	
3033.541	3.19	
3035.581	3.86	
3037.619	-0.12	
3039.656	1.87	
3041.692	3.86	
3043.727	1.2	
3045.76	3.19	
3047.793	0.54	
3049.824	3.19	
3051.853	0.54	
3053.882	-1.78	
3055.909	0.21	
