RamanShift:204		
0.351	-17.83	
4.587	-3.57	
8.82	-10.86	
13.049	-6.88	
17.275	-5.89	
21.497	-2.57	
25.716	-6.88	
29.931	-4.89	
34.142	-3.9	
38.351	-4.23	
42.555	-1.91	
46.756	-0.58	
50.954	-1.91	
55.148	-1.24	
59.339	-0.91	
63.527	-1.91	
67.71	0.08	
71.891	-2.9	
76.068	-2.57	
80.241	1.08	
84.411	0.08	
88.578	2.4	
92.741	3.4	
96.901	6.72	
101.057	10.36	
105.21	6.72	
109.359	11.03	
113.505	10.7	
117.648	14.34	
121.787	16	
125.923	15.01	
130.055	15.34	
134.184	19.98	
138.31	19.98	
142.432	22.3	
146.551	25.95	
150.667	27.94	
154.779	25.95	
158.887	28.94	
162.993	34.57	
167.095	29.93	
171.193	36.56	
175.289	38.22	
179.381	41.87	
183.469	40.54	
187.554	36.57	
191.636	40.21	
195.715	39.22	
199.79	34.91	
203.862	31.92	
207.931	32.25	
211.996	33.25	
216.058	34.58	
220.116	29.6	
224.172	33.91	
228.224	31.59	
232.272	25.95	
236.318	23.63	
240.36	24.96	
244.399	22.64	
248.434	24.63	
252.466	23.3	
256.495	22.64	
260.521	17.33	
264.544	19.65	
268.563	23.96	
272.579	18.32	
276.591	20.98	
280.601	19.98	
284.607	17.99	
288.61	17.99	
292.609	18.32	
296.606	13.35	
300.599	17	
304.589	18.99	
308.575	15.01	
312.559	14.34	
316.539	16.33	
320.516	17.66	
324.49	16.33	
328.461	11.69	
332.428	15.67	
336.392	14.34	
340.353	13.68	
344.311	18.66	
348.266	18.66	
352.217	18.32	
356.165	18.32	
360.11	23.3	
364.052	28.61	
367.991	32.59	
371.926	31.26	
375.859	26.95	
379.788	24.29	
383.714	24.63	
387.637	24.63	
391.557	19.32	
395.473	22.3	
399.387	26.28	
403.297	25.29	
407.204	24.29	
411.108	29.6	
415.009	32.25	
418.907	41.54	
422.802	40.54	
426.693	41.54	
430.581	44.86	
434.467	44.19	
438.349	50.83	
442.228	54.81	
446.104	51.49	
449.977	45.19	
453.847	39.88	
457.713	38.89	
461.577	34.24	
465.438	31.92	
469.295	29.93	
473.149	35.24	
477.001	34.91	
480.849	41.54	
484.694	38.22	
488.536	41.54	
492.375	36.23	
496.211	31.59	
500.044	27.94	
503.874	20.31	
507.701	17.66	
511.525	17.33	
515.346	15.01	
519.163	14.01	
522.978	16	
526.79	13.68	
530.598	15.67	
534.404	18.32	
538.207	16	
542.006	16.67	
545.803	17.99	
549.596	17.33	
553.387	21.31	
557.175	22.64	
560.959	20.31	
564.741	22.64	
568.519	25.95	
572.295	27.28	
576.068	26.95	
579.837	32.59	
583.604	42.53	
587.368	44.86	
591.128	50.49	
594.886	59.12	
598.641	60.44	
602.393	69.4	
606.142	68.74	
609.887	75.7	
613.63	87.31	
617.37	78.35	
621.108	66.08	
624.842	49.83	
628.573	38.22	
632.301	29.27	
636.027	23.63	
639.749	25.62	
643.468	18.66	
647.185	20.31	
650.899	18.32	
654.609	13.68	
658.317	13.02	
662.022	14.01	
665.724	11.69	
669.423	12.69	
673.119	14.34	
676.813	12.35	
680.503	11.36	
684.191	13.35	
687.875	11.69	
691.557	7.71	
695.236	8.71	
698.912	9.37	
702.585	10.03	
706.256	7.71	
709.923	14.34	
713.588	13.02	
717.249	11.36	
720.908	9.37	
724.564	10.03	
728.217	11.03	
731.868	12.35	
735.515	13.02	
739.16	14.34	
742.801	15.01	
746.44	16.33	
750.076	15.01	
753.71	15.01	
757.34	20.31	
760.968	20.98	
764.593	24.63	
768.215	29.6	
771.834	39.22	
775.45	43.86	
779.064	39.22	
782.675	38.22	
786.283	28.94	
789.888	35.9	
793.49	51.16	
797.09	64.76	
800.686	112.18	
804.281	195.43	
807.872	320.15	
811.46	385.82	
815.046	293.94	
818.629	159.61	
822.209	79.02	
825.786	53.15	
829.361	48.5	
832.933	44.52	
836.502	50.16	
840.068	48.84	
843.632	53.81	
847.193	59.78	
850.751	67.74	
854.306	75.04	
857.859	85.65	
861.409	107.54	
864.956	129.1	
868.5	150.99	
872.042	182.17	
875.581	217.32	
879.117	255.47	
882.651	290.96	
886.182	305.88	
889.71	290.96	
893.235	222.96	
896.758	149	
900.278	101.9	
903.795	76.7	
907.31	54.47	
910.822	49.83	
914.331	45.52	
917.838	48.17	
921.341	47.18	
924.843	53.15	
928.341	58.12	
931.837	68.07	
935.33	78.69	
938.821	82	
942.308	78.35	
945.793	72.38	
949.276	59.78	
952.756	51.82	
956.233	35.9	
959.707	31.92	
963.179	24.96	
966.649	25.29	
970.115	26.62	
973.579	23.96	
977.04	19.65	
980.499	19.65	
983.955	21.31	
987.408	20.31	
990.859	18.99	
994.307	23.3	
997.753	22.97	
1001.196	24.96	
1004.636	27.94	
1008.074	23.96	
1011.509	20.65	
1014.941	20.98	
1018.371	21.64	
1021.798	20.31	
1025.223	14.68	
1028.645	14.34	
1032.064	10.03	
1035.481	17.66	
1038.896	16	
1042.307	17	
1045.716	16.67	
1049.123	13.35	
1052.527	17.99	
1055.928	14.68	
1059.327	17.66	
1062.723	17.66	
1066.117	19.65	
1069.508	16.33	
1072.897	23.3	
1076.283	19.65	
1079.666	20.31	
1083.047	27.94	
1086.425	26.95	
1089.801	31.59	
1093.174	37.56	
1096.545	34.58	
1099.913	42.53	
1103.279	42.53	
1106.642	44.19	
1110.002	44.19	
1113.36	42.87	
1116.716	45.85	
1120.069	53.48	
1123.419	52.48	
1126.767	51.82	
1130.113	48.5	
1133.456	39.55	
1136.796	35.24	
1140.134	31.26	
1143.47	33.25	
1146.802	27.94	
1150.133	28.27	
1153.461	32.25	
1156.786	37.89	
1160.109	35.24	
1163.43	36.57	
1166.748	30.6	
1170.063	22.3	
1173.376	24.96	
1176.687	18.99	
1179.995	17.66	
1183.3	20.31	
1186.603	19.98	
1189.904	17.33	
1193.202	17	
1196.498	15.67	
1199.791	18.32	
1203.082	14.01	
1206.37	19.32	
1209.656	15.67	
1212.94	14.01	
1216.221	18.32	
1219.499	16.33	
1222.775	20.65	
1226.049	19.98	
1229.32	19.65	
1232.589	17	
1235.856	22.64	
1239.12	22.64	
1242.381	21.97	
1245.64	23.96	
1248.897	24.63	
1252.151	25.62	
1255.403	24.96	
1258.652	24.96	
1261.9	30.93	
1265.144	28.27	
1268.386	33.58	
1271.626	37.23	
1274.864	35.24	
1278.099	34.24	
1281.331	36.57	
1284.562	32.25	
1287.789	30.93	
1291.015	31.92	
1294.238	39.55	
1297.459	41.54	
1300.677	44.53	
1303.893	41.87	
1307.106	43.2	
1310.318	41.87	
1313.526	46.52	
1316.733	41.21	
1319.937	44.86	
1323.139	43.86	
1326.338	47.18	
1329.535	51.49	
1332.73	55.8	
1335.922	56.8	
1339.112	62.44	
1342.3	57.46	
1345.485	55.14	
1348.668	60.11	
1351.848	57.79	
1355.027	55.47	
1358.203	62.77	
1361.376	56.13	
1364.547	62.1	
1367.716	58.12	
1370.883	59.12	
1374.047	57.46	
1377.209	61.77	
1380.369	59.12	
1383.526	61.11	
1386.681	62.77	
1389.834	63.76	
1392.984	70.4	
1396.132	74.38	
1399.278	73.05	
1402.421	78.02	
1405.562	79.02	
1408.701	85.98	
1411.838	84.66	
1414.972	88.31	
1418.104	91.95	
1421.234	91.62	
1424.361	91.95	
1427.486	92.62	
1430.609	88.97	
1433.73	95.93	
1436.848	98.92	
1439.964	107.21	
1443.078	124.46	
1446.189	126.78	
1449.299	123.79	
1452.405	124.13	
1455.51	113.84	
1458.613	100.24	
1461.713	90.96	
1464.811	76.36	
1467.906	67.74	
1471	60.78	
1474.091	50.5	
1477.18	52.15	
1480.267	42.87	
1483.351	38.89	
1486.433	39.55	
1489.513	40.21	
1492.591	33.25	
1495.666	29.93	
1498.74	35.57	
1501.811	29.6	
1504.879	28.94	
1507.946	25.62	
1511.01	28.61	
1514.073	26.62	
1517.132	23.3	
1520.19	27.94	
1523.246	26.62	
1526.299	21.31	
1529.35	21.97	
1532.399	25.29	
1535.446	27.61	
1538.49	23.3	
1541.532	21.97	
1544.572	22.3	
1547.61	23.3	
1550.646	17.66	
1553.68	16.33	
1556.711	21.31	
1559.74	21.97	
1562.767	19.98	
1565.792	20.31	
1568.814	18.99	
1571.835	22.97	
1574.853	21.31	
1577.869	17	
1580.883	17.66	
1583.895	17	
1586.904	14.34	
1589.912	17.33	
1592.917	20.65	
1595.92	17.99	
1598.921	18.99	
1601.92	19.65	
1604.917	21.97	
1607.911	20.31	
1610.903	17.33	
1613.894	21.31	
1616.882	19.32	
1619.868	20.98	
1622.851	20.65	
1625.833	19.98	
1628.812	25.62	
1631.79	24.63	
1634.765	21.31	
1637.738	24.29	
1640.709	30.26	
1643.678	29.27	
1646.645	31.92	
1649.609	32.59	
1652.572	34.24	
1655.532	35.57	
1658.49	40.88	
1661.447	44.86	
1664.401	42.2	
1667.353	44.19	
1670.302	47.18	
1673.25	51.16	
1676.196	47.84	
1679.139	49.17	
1682.081	50.16	
1685.02	50.83	
1687.957	46.51	
1690.893	47.18	
1693.826	51.82	
1696.757	50.49	
1699.686	49.83	
1702.612	52.48	
1705.537	44.86	
1708.46	51.82	
1711.38	45.19	
1714.299	44.19	
1717.215	37.56	
1720.13	40.21	
1723.042	37.23	
1725.952	34.24	
1728.86	33.58	
1731.767	26.28	
1734.671	24.63	
1737.573	23.63	
1740.473	23.96	
1743.37	24.63	
1746.266	21.31	
1749.16	19.32	
1752.052	20.98	
1754.942	18.99	
1757.829	23.96	
1760.715	19.32	
1763.598	19.98	
1766.48	13.68	
1769.36	13.35	
1772.237	13.02	
1775.112	13.35	
1777.986	14.68	
1780.857	13.02	
1783.727	9.7	
1786.594	12.69	
1789.459	11.03	
1792.323	12.69	
1795.184	14.01	
1798.043	9.37	
1800.9	9.04	
1803.756	8.04	
1806.609	10.03	
1809.46	11.03	
1812.309	10.7	
1815.157	9.04	
1818.002	7.05	
1820.845	8.37	
1823.686	7.71	
1826.526	9.37	
1829.363	12.35	
1832.198	5.72	
1835.031	8.04	
1837.863	6.72	
1840.692	10.7	
1843.519	8.37	
1846.345	6.72	
1849.168	5.39	
1851.989	10.36	
1854.809	4.06	
1857.626	7.05	
1860.441	8.37	
1863.255	7.38	
1866.066	7.71	
1868.876	11.69	
1871.684	10.36	
1874.489	10.7	
1877.293	5.72	
1880.095	4.73	
1882.894	10.36	
1885.692	6.72	
1888.488	12.69	
1891.282	9.37	
1894.074	9.37	
1896.864	6.38	
1899.652	6.72	
1902.438	5.72	
1905.222	5.39	
1908.004	4.73	
1910.785	8.37	
1913.563	10.7	
1916.339	6.72	
1919.114	6.72	
1921.886	11.69	
1924.657	5.39	
1927.426	6.72	
1930.193	9.7	
1932.957	7.38	
1935.72	7.71	
1938.481	7.05	
1941.24	6.72	
1943.998	5.06	
1946.753	9.37	
1949.506	10.7	
1952.258	7.05	
1955.007	4.73	
1957.755	3.4	
1960.501	5.72	
1963.245	6.05	
1965.986	6.72	
1968.726	4.39	
1971.465	7.05	
1974.201	5.39	
1976.935	6.72	
1979.668	3.73	
1982.398	2.4	
1985.127	4.73	
1987.854	4.06	
1990.579	4.39	
1993.302	2.74	
1996.023	10.36	
1998.742	4.06	
2001.46	4.39	
2004.175	0.75	
2006.889	6.72	
2009.6	3.4	
2012.31	5.39	
2015.018	6.05	
2017.725	3.4	
2020.429	4.73	
2023.131	6.05	
2025.832	7.05	
2028.531	4.73	
2031.228	5.72	
2033.923	6.38	
2036.616	4.73	
2039.307	8.37	
2041.997	7.38	
2044.684	4.06	
2047.37	5.39	
2050.054	4.06	
2052.736	4.73	
2055.416	1.74	
2058.095	9.04	
2060.771	5.72	
2063.446	0.08	
2066.119	3.4	
2068.79	2.07	
2071.459	4.06	
2074.127	8.04	
2076.792	2.74	
2079.456	6.72	
2082.118	6.05	
2084.778	7.38	
2087.436	3.73	
2090.093	8.37	
2092.747	5.06	
2095.4	3.07	
2098.051	7.71	
2100.7	4.06	
2103.348	5.72	
2105.993	1.41	
2108.637	6.38	
2111.279	6.05	
2113.919	4.39	
2116.558	3.4	
2119.194	6.72	
2121.829	0.08	
2124.462	5.39	
2127.093	5.72	
2129.723	1.41	
2132.35	3.73	
2134.976	5.06	
2137.6	3.73	
2140.223	1.41	
2142.843	6.38	
2145.462	2.74	
2148.079	4.39	
2150.694	1.74	
2153.307	6.05	
2155.919	2.74	
2158.528	1.74	
2161.137	1.08	
2163.743	7.05	
2166.347	2.4	
2168.95	5.72	
2171.551	2.07	
2174.15	5.06	
2176.748	1.08	
2179.343	5.39	
2181.937	4.73	
2184.529	3.73	
2187.12	2.74	
2189.708	5.06	
2192.295	1.08	
2194.88	4.06	
2197.464	2.07	
2200.045	6.05	
2202.625	4.73	
2205.203	2.07	
2207.78	1.74	
2210.355	3.73	
2212.928	5.72	
2215.499	3.07	
2218.068	2.74	
2220.636	4.73	
2223.202	1.08	
2225.766	1.74	
2228.329	4.06	
2230.889	3.07	
2233.449	5.06	
2236.006	3.73	
2238.562	1.74	
2241.115	2.4	
2243.668	3.07	
2246.218	4.73	
2248.767	6.05	
2251.314	3.73	
2253.859	4.39	
2256.403	4.06	
2258.945	4.39	
2261.485	3.07	
2264.023	1.41	
2266.56	3.07	
2269.095	5.39	
2271.629	3.4	
2274.16	5.06	
2276.69	3.73	
2279.219	1.08	
2281.745	3.73	
2284.27	-0.58	
2286.793	6.05	
2289.315	2.74	
2291.835	2.74	
2294.353	4.39	
2296.869	0.75	
2299.384	2.74	
2301.897	3.4	
2304.408	5.72	
2306.918	2.07	
2309.426	3.4	
2311.932	4.39	
2314.437	5.06	
2316.94	0.08	
2319.441	4.73	
2321.941	1.41	
2324.439	5.39	
2326.935	1.41	
2329.43	3.07	
2331.923	2.4	
2334.414	5.39	
2336.904	4.73	
2339.392	7.38	
2341.878	1.08	
2344.363	2.07	
2346.846	5.06	
2349.328	0.75	
2351.807	4.73	
2354.285	4.73	
2356.762	4.39	
2359.237	4.06	
2361.71	3.73	
2364.181	4.73	
2366.651	4.39	
2369.119	5.06	
2371.586	7.71	
2374.051	4.39	
2376.514	3.07	
2378.976	2.07	
2381.436	3.07	
2383.894	3.73	
2386.351	4.39	
2388.806	5.39	
2391.259	2.4	
2393.711	3.4	
2396.161	4.39	
2398.61	2.4	
2401.057	4.39	
2403.502	3.07	
2405.946	5.72	
2408.388	3.07	
2410.829	4.39	
2413.268	5.06	
2415.705	4.39	
2418.141	6.38	
2420.575	0.75	
2423.007	2.74	
2425.438	6.05	
2427.867	8.04	
2430.295	6.38	
2432.721	5.06	
2435.145	-0.91	
2437.568	3.4	
2439.989	5.72	
2442.409	5.72	
2444.827	2.07	
2447.243	2.07	
2449.658	6.38	
2452.071	5.39	
2454.483	3.4	
2456.893	3.4	
2459.302	8.37	
2461.709	-0.25	
2464.114	4.06	
2466.518	2.4	
2468.92	4.06	
2471.32	2.4	
2473.719	5.39	
2476.117	3.4	
2478.512	3.4	
2480.907	4.06	
2483.299	2.07	
2485.691	4.06	
2488.08	3.4	
2490.468	0.41	
2492.854	4.73	
2495.239	3.4	
2497.623	7.38	
2500.004	2.07	
2502.384	4.06	
2504.763	7.05	
2507.14	1.41	
2509.515	4.39	
2511.889	3.73	
2514.262	4.39	
2516.633	5.39	
2519.002	3.73	
2521.369	4.73	
2523.736	4.73	
2526.1	3.4	
2528.463	5.39	
2530.825	4.39	
2533.185	7.05	
2535.543	4.39	
2537.9	5.72	
2540.255	4.73	
2542.609	4.06	
2544.961	1.41	
2547.312	-0.25	
2549.661	0.75	
2552.009	2.74	
2554.355	5.72	
2556.7	4.39	
2559.043	5.06	
2561.384	5.39	
2563.724	3.4	
2566.063	5.39	
2568.4	6.05	
2570.735	5.72	
2573.069	4.39	
2575.402	9.04	
2577.733	5.39	
2580.062	7.05	
2582.39	1.74	
2584.716	2.07	
2587.041	5.39	
2589.364	5.39	
2591.686	5.72	
2594.006	4.39	
2596.325	3.73	
2598.643	6.72	
2600.958	6.72	
2603.273	7.05	
2605.585	5.06	
2607.897	7.05	
2610.206	6.38	
2612.515	2.74	
2614.822	4.06	
2617.127	6.38	
2619.431	3.4	
2621.733	4.73	
2624.034	6.05	
2626.333	4.39	
2628.631	9.04	
2630.927	4.06	
2633.222	3.73	
2635.515	4.73	
2637.807	7.71	
2640.098	7.38	
2642.387	7.71	
2644.674	2.4	
2646.96	7.05	
2649.245	6.72	
2651.528	4.73	
2653.809	8.37	
2656.089	5.72	
2658.368	5.39	
2660.645	9.04	
2662.921	6.38	
2665.195	8.37	
2667.468	7.38	
2669.739	9.37	
2672.009	6.72	
2674.277	7.71	
2676.544	6.72	
2678.809	5.72	
2681.073	11.03	
2683.336	9.04	
2685.597	9.04	
2687.856	3.07	
2690.115	10.36	
2692.371	10.36	
2694.626	7.05	
2696.88	9.7	
2699.133	9.7	
2701.383	9.04	
2703.633	9.37	
2705.881	9.04	
2708.127	7.38	
2710.373	10.7	
2712.616	9.7	
2714.859	9.04	
2717.099	10.7	
2719.339	11.03	
2721.577	12.35	
2723.813	13.68	
2726.048	10.03	
2728.282	9.7	
2730.514	8.71	
2732.745	9.37	
2734.974	9.7	
2737.202	10.7	
2739.428	12.02	
2741.653	6.72	
2743.877	7.71	
2746.099	9.37	
2748.32	6.72	
2750.539	7.71	
2752.757	6.05	
2754.974	9.37	
2757.189	11.03	
2759.403	12.35	
2761.615	9.7	
2763.826	6.05	
2766.035	8.37	
2768.243	3.4	
2770.45	10.36	
2772.655	6.38	
2774.859	10.36	
2777.062	5.39	
2779.263	10.7	
2781.462	9.37	
2783.66	8.71	
2785.857	12.35	
2788.053	10.03	
2790.247	10.7	
2792.439	6.72	
2794.631	6.38	
2796.82	12.35	
2799.009	9.7	
2801.196	8.04	
2803.382	9.7	
2805.566	8.37	
2807.749	10.36	
2809.93	12.69	
2812.11	9.7	
2814.289	10.36	
2816.466	10.36	
2818.642	11.69	
2820.817	13.02	
2822.99	11.69	
2825.162	16.67	
2827.332	13.02	
2829.502	17.99	
2831.669	14.68	
2833.836	15.67	
2836	15.67	
2838.164	17.99	
2840.326	23.63	
2842.487	21.97	
2844.647	22.64	
2846.805	23.3	
2848.961	25.29	
2851.117	27.94	
2853.271	25.29	
2855.423	30.6	
2857.575	29.6	
2859.725	31.92	
2861.873	35.9	
2864.02	38.89	
2866.166	40.88	
2868.311	41.21	
2870.454	49.17	
2872.596	46.51	
2874.736	53.48	
2876.875	54.81	
2879.013	64.09	
2881.149	64.76	
2883.284	66.75	
2885.418	66.41	
2887.551	64.09	
2889.682	71.39	
2891.811	69.4	
2893.94	73.71	
2896.067	69.4	
2898.192	65.75	
2900.317	66.08	
2902.439	75.04	
2904.561	74.04	
2906.681	72.38	
2908.8	75.7	
2910.918	74.71	
2913.034	74.37	
2915.149	83.66	
2917.263	83.99	
2919.375	84.66	
2921.486	84.32	
2923.596	90.96	
2925.704	93.61	
2927.811	97.59	
2929.917	102.9	
2932.021	105.88	
2934.124	113.18	
2936.226	116.5	
2938.327	122.13	
2940.426	118.49	
2942.524	114.17	
2944.62	106.21	
2946.715	100.24	
2948.809	93.61	
2950.902	87.31	
2952.993	74.37	
2955.083	69.07	
2957.171	70.39	
2959.259	60.11	
2961.345	60.78	
2963.429	57.46	
2965.513	58.45	
2967.595	62.43	
2969.676	55.8	
2971.755	57.79	
2973.833	58.79	
2975.91	55.47	
2977.986	53.48	
2980.06	53.81	
2982.133	52.48	
2984.205	48.17	
2986.275	47.51	
2988.345	44.86	
2990.412	42.2	
2992.479	36.56	
2994.544	34.24	
2996.608	32.25	
2998.671	34.57	
3000.732	28.27	
3002.792	27.61	
3004.851	25.95	
3006.909	23.96	
3008.965	26.28	
3011.02	23.96	
3013.074	21.31	
3015.126	20.31	
3017.177	15.34	
3019.227	17.66	
3021.276	15.01	
3023.323	20.31	
3025.369	16.67	
3027.414	16	
3029.458	17	
3031.5	16.67	
3033.541	14.01	
3035.581	12.69	
3037.619	9.04	
3039.656	12.02	
3041.692	7.05	
3043.727	10.7	
3045.76	8.04	
3047.793	6.72	
3049.824	11.03	
3051.853	-0.58	
3053.882	-1.58	
3055.909	1.74	
