RamanShift:204		
0.351	-857.43	
4.587	-114.1	
8.82	-34.16	
13.049	-23.88	
17.275	-20.23	
21.497	-12.93	
25.716	-11.61	
29.931	-11.94	
34.142	-7.63	
38.351	-6.96	
42.555	-7.3	
46.756	-4.64	
50.954	-5.97	
55.148	-4.97	
59.339	-3.65	
63.527	-4.31	
67.71	-3.32	
71.891	-4.97	
76.068	-2.65	
80.241	-3.98	
84.411	-3.65	
88.578	-2.32	
92.741	-0.99	
96.901	-1.33	
101.057	1.66	
105.21	0.33	
109.359	0	
113.505	2.65	
117.648	1.66	
121.787	4.31	
125.923	2.65	
130.055	7.63	
134.184	3.65	
138.31	6.96	
142.432	7.96	
146.551	12.6	
150.667	12.6	
154.779	15.26	
158.887	12.93	
162.993	18.57	
167.095	21.23	
171.193	23.88	
175.289	28.19	
179.381	29.19	
183.469	26.53	
187.554	32.17	
191.636	33.83	
195.715	27.86	
199.79	35.49	
203.862	31.51	
207.931	38.47	
211.996	33.83	
216.058	36.15	
220.116	37.48	
224.172	39.8	
228.224	31.51	
232.272	38.14	
236.318	33.5	
240.36	37.48	
244.399	35.16	
248.434	35.82	
252.466	34.16	
256.495	31.51	
260.521	33.17	
264.544	29.85	
268.563	27.2	
272.579	28.52	
276.591	29.52	
280.601	23.88	
284.607	25.87	
288.61	31.51	
292.609	28.19	
296.606	29.19	
300.599	28.52	
304.589	33.17	
308.575	30.84	
312.559	30.51	
316.539	35.16	
320.516	37.48	
324.49	35.82	
328.461	36.15	
332.428	35.82	
336.392	41.79	
340.353	42.78	
344.311	43.78	
348.266	37.15	
352.217	36.15	
356.165	39.8	
360.11	33.83	
364.052	32.83	
367.991	34.16	
371.926	29.19	
375.859	27.53	
379.788	32.83	
383.714	26.2	
387.637	32.83	
391.557	35.16	
395.473	28.85	
399.387	31.51	
403.297	33.5	
407.204	39.47	
411.108	36.48	
415.009	42.12	
418.907	32.83	
422.802	32.83	
426.693	30.84	
430.581	34.82	
434.467	34.82	
438.349	34.82	
442.228	36.48	
446.104	34.16	
449.977	31.84	
453.847	30.18	
457.713	32.5	
461.577	38.8	
465.438	45.77	
469.295	61.02	
473.149	65.34	
477.001	73.96	
480.849	61.36	
484.694	59.03	
488.536	44.44	
492.375	46.76	
496.211	37.81	
500.044	39.47	
503.874	35.16	
507.701	32.17	
511.525	38.14	
515.346	37.48	
519.163	36.81	
522.978	32.17	
526.79	32.17	
530.598	29.85	
534.404	28.85	
538.207	25.21	
542.006	27.2	
545.803	28.19	
549.596	25.21	
553.387	25.54	
557.175	25.87	
560.959	24.87	
564.741	28.19	
568.519	25.54	
572.295	23.55	
576.068	23.55	
579.837	18.9	
583.604	22.55	
587.368	22.55	
591.128	23.55	
594.886	24.54	
598.641	19.24	
602.393	24.21	
606.142	22.22	
609.887	24.54	
613.63	22.88	
617.37	21.89	
621.108	23.55	
624.842	24.54	
628.573	26.2	
632.301	21.23	
636.027	22.55	
639.749	21.23	
643.468	24.21	
647.185	22.22	
650.899	19.57	
654.609	20.56	
658.317	22.55	
662.022	24.21	
665.724	27.2	
669.423	25.54	
673.119	23.55	
676.813	22.55	
680.503	24.54	
684.191	19.9	
687.875	20.23	
691.557	18.9	
695.236	20.56	
698.912	19.9	
702.585	20.23	
706.256	22.55	
709.923	18.24	
713.588	17.91	
717.249	19.24	
720.908	18.9	
724.564	18.57	
728.217	17.58	
731.868	16.58	
735.515	19.57	
739.16	18.24	
742.801	19.24	
746.44	20.89	
750.076	16.58	
753.71	22.88	
757.34	18.24	
760.968	17.91	
764.593	21.23	
768.215	21.89	
771.834	25.87	
775.45	22.88	
779.064	21.89	
782.675	20.89	
786.283	25.87	
789.888	29.85	
793.49	28.52	
797.09	29.85	
800.686	34.16	
804.281	46.76	
807.872	56.71	
811.46	62.35	
815.046	74.62	
818.629	80.92	
822.209	85.24	
825.786	81.26	
829.361	78.93	
832.933	82.58	
836.502	90.54	
840.068	102.48	
843.632	115.75	
847.193	142.28	
850.751	181.42	
854.306	207.95	
857.859	226.86	
861.409	212.93	
864.956	193.36	
868.5	156.54	
872.042	126.03	
875.581	103.48	
879.117	87.89	
882.651	74.29	
886.182	59.03	
889.71	51.08	
893.235	43.12	
896.758	37.81	
900.278	33.83	
903.795	38.14	
907.31	37.48	
910.822	32.17	
914.331	33.17	
917.838	32.83	
921.341	29.85	
924.843	33.83	
928.341	30.51	
931.837	29.19	
935.33	27.2	
938.821	22.88	
942.308	21.89	
945.793	18.57	
949.276	21.23	
952.756	25.87	
956.233	24.54	
959.707	29.52	
963.179	23.88	
966.649	28.52	
970.115	31.18	
973.579	31.18	
977.04	33.5	
980.499	27.53	
983.955	34.82	
987.408	42.45	
990.859	39.47	
994.307	42.12	
997.753	51.74	
1001.196	54.06	
1004.636	55.72	
1008.074	61.69	
1011.509	64.67	
1014.941	70.64	
1018.371	84.24	
1021.798	90.87	
1025.223	97.51	
1028.645	101.49	
1032.064	103.48	
1035.481	111.44	
1038.896	116.74	
1042.307	118.07	
1045.716	124.37	
1049.123	125.7	
1052.527	118.73	
1055.928	118.73	
1059.327	117.41	
1062.723	113.76	
1066.117	108.78	
1069.508	112.1	
1072.897	106.79	
1076.283	111.11	
1079.666	116.41	
1083.047	123.05	
1086.425	115.75	
1089.801	107.13	
1093.174	98.5	
1096.545	83.58	
1099.913	66.33	
1103.279	59.03	
1106.642	54.06	
1110.002	50.08	
1113.36	43.45	
1116.716	40.79	
1120.069	41.79	
1123.419	38.8	
1126.767	36.48	
1130.113	35.16	
1133.456	35.82	
1136.796	34.16	
1140.134	30.51	
1143.47	36.48	
1146.802	37.48	
1150.133	33.83	
1153.461	35.82	
1156.786	35.16	
1160.109	38.47	
1163.43	37.81	
1166.748	37.15	
1170.063	37.15	
1173.376	45.77	
1176.687	36.81	
1179.995	41.13	
1183.3	46.76	
1186.603	44.44	
1189.904	46.76	
1193.202	48.42	
1196.498	57.71	
1199.791	54.72	
1203.082	56.71	
1206.37	64.01	
1209.656	59.37	
1212.94	63.01	
1216.221	63.68	
1219.499	62.02	
1222.775	65	
1226.049	57.71	
1229.32	66.66	
1232.589	66.66	
1235.856	64.01	
1239.12	69.98	
1242.381	76.94	
1245.64	78.6	
1248.897	79.6	
1252.151	83.25	
1255.403	84.24	
1258.652	83.91	
1261.9	90.21	
1265.144	91.21	
1268.386	91.54	
1271.626	81.59	
1274.864	81.59	
1278.099	85.9	
1281.331	83.58	
1284.562	81.92	
1287.789	79.93	
1291.015	80.26	
1294.238	76.28	
1297.459	66.99	
1300.677	68.32	
1303.893	66	
1307.106	72.63	
1310.318	74.95	
1313.526	72.3	
1316.733	74.62	
1319.937	74.29	
1323.139	76.28	
1326.338	79.27	
1329.535	70.97	
1332.73	78.27	
1335.922	75.62	
1339.112	82.25	
1342.3	79.6	
1345.485	80.59	
1348.668	80.59	
1351.848	79.6	
1355.027	80.92	
1358.203	81.26	
1361.376	78.6	
1364.547	88.55	
1367.716	84.57	
1370.883	87.23	
1374.047	79.93	
1377.209	87.89	
1380.369	82.91	
1383.526	85.9	
1386.681	87.56	
1389.834	82.91	
1392.984	80.59	
1396.132	84.9	
1399.278	87.56	
1402.421	81.59	
1405.562	85.24	
1408.701	88.22	
1411.838	88.22	
1414.972	92.53	
1418.104	98.17	
1421.234	96.18	
1424.361	100.49	
1427.486	89.55	
1430.609	98.17	
1433.73	88.88	
1436.848	90.54	
1439.964	96.18	
1443.078	107.13	
1446.189	117.08	
1449.299	128.68	
1452.405	137.64	
1455.51	136.64	
1458.613	143.28	
1461.713	133.99	
1464.811	122.05	
1467.906	106.46	
1471	98.5	
1474.091	83.25	
1477.18	78.6	
1480.267	63.68	
1483.351	63.68	
1486.433	54.72	
1489.513	53.73	
1492.591	52.73	
1495.666	46.76	
1498.74	48.75	
1501.811	45.11	
1504.879	47.1	
1507.946	42.78	
1511.01	42.78	
1514.073	42.12	
1517.132	40.79	
1520.19	39.8	
1523.246	39.8	
1526.299	38.8	
1529.35	37.15	
1532.399	43.45	
1535.446	36.81	
1538.49	39.14	
1541.532	37.81	
1544.572	40.13	
1547.61	36.15	
1550.646	35.82	
1553.68	35.82	
1556.711	32.83	
1559.74	35.16	
1562.767	35.16	
1565.792	31.84	
1568.814	33.5	
1571.835	36.81	
1574.853	34.49	
1577.869	34.82	
1580.883	30.18	
1583.895	30.51	
1586.904	32.17	
1589.912	31.18	
1592.917	29.19	
1595.92	30.18	
1598.921	33.17	
1601.92	29.85	
1604.917	30.51	
1607.911	28.52	
1610.903	31.51	
1613.894	30.18	
1616.882	28.19	
1619.868	26.86	
1622.851	25.21	
1625.833	29.85	
1628.812	28.85	
1631.79	21.56	
1634.765	26.86	
1637.738	25.21	
1640.709	27.86	
1643.678	26.86	
1646.645	27.53	
1649.609	26.2	
1652.572	24.54	
1655.532	31.18	
1658.49	27.86	
1661.447	31.18	
1664.401	27.2	
1667.353	27.86	
1670.302	21.23	
1673.25	25.21	
1676.196	25.21	
1679.139	30.51	
1682.081	22.88	
1685.02	25.21	
1687.957	20.23	
1690.893	17.58	
1693.826	28.85	
1696.757	26.2	
1699.686	23.22	
1702.612	19.57	
1705.537	21.56	
1708.46	19.9	
1711.38	18.24	
1714.299	20.89	
1717.215	19.9	
1720.13	21.23	
1723.042	16.25	
1725.952	18.9	
1728.86	20.56	
1731.767	18.9	
1734.671	16.25	
1737.573	18.57	
1740.473	18.24	
1743.37	19.9	
1746.266	20.89	
1749.16	18.24	
1752.052	13.6	
1754.942	18.9	
1757.829	18.9	
1760.715	13.93	
1763.598	17.58	
1766.48	18.24	
1769.36	17.91	
1772.237	19.9	
1775.112	21.56	
1777.986	18.24	
1780.857	21.56	
1783.727	19.24	
1786.594	19.9	
1789.459	18.57	
1792.323	17.58	
1795.184	16.58	
1798.043	16.25	
1800.9	15.26	
1803.756	17.58	
1806.609	21.23	
1809.46	16.91	
1812.309	17.58	
1815.157	13.27	
1818.002	16.58	
1820.845	18.24	
1823.686	16.58	
1826.526	12.27	
1829.363	17.91	
1832.198	20.23	
1835.031	18.9	
1837.863	15.26	
1840.692	19.24	
1843.519	14.92	
1846.345	16.25	
1849.168	18.9	
1851.989	19.9	
1854.809	14.59	
1857.626	14.26	
1860.441	17.91	
1863.255	16.91	
1866.066	14.59	
1868.876	12.93	
1871.684	16.58	
1874.489	14.26	
1877.293	14.26	
1880.095	16.58	
1882.894	14.59	
1885.692	18.9	
1888.488	13.6	
1891.282	16.91	
1894.074	17.58	
1896.864	12.6	
1899.652	13.93	
1902.438	14.92	
1905.222	14.26	
1908.004	12.6	
1910.785	14.59	
1913.563	12.6	
1916.339	13.6	
1919.114	16.25	
1921.886	15.92	
1924.657	14.92	
1927.426	14.92	
1930.193	12.6	
1932.957	11.94	
1935.72	11.61	
1938.481	12.93	
1941.24	10.61	
1943.998	15.59	
1946.753	15.26	
1949.506	12.93	
1952.258	12.93	
1955.007	9.95	
1957.755	6.3	
1960.501	11.94	
1963.245	11.28	
1965.986	9.29	
1968.726	6.3	
1971.465	6.63	
1974.201	12.6	
1976.935	6.3	
1979.668	10.61	
1982.398	9.62	
1985.127	8.29	
1987.854	7.63	
1990.579	7.63	
1993.302	6.3	
1996.023	10.28	
1998.742	8.29	
2001.46	7.3	
2004.175	4.97	
2006.889	7.3	
2009.6	5.64	
2012.31	6.63	
2015.018	7.63	
2017.725	5.64	
2020.429	3.98	
2023.131	5.31	
2025.832	4.31	
2028.531	5.64	
2031.228	3.65	
2033.923	7.3	
2036.616	6.3	
2039.307	6.96	
2041.997	4.31	
2044.684	8.62	
2047.37	2.98	
2050.054	5.64	
2052.736	4.31	
2055.416	5.64	
2058.095	6.3	
2060.771	5.64	
2063.446	5.97	
2066.119	6.63	
2068.79	5.97	
2071.459	1.33	
2074.127	3.98	
2076.792	2.65	
2079.456	1.66	
2082.118	1.99	
2084.778	1.66	
2087.436	6.63	
2090.093	6.3	
2092.747	2.65	
2095.4	4.64	
2098.051	4.97	
2100.7	3.98	
2103.348	3.32	
2105.993	0	
2108.637	2.32	
2111.279	3.98	
2113.919	3.65	
2116.558	3.98	
2119.194	1.33	
2121.829	1.66	
2124.462	3.65	
2127.093	0.99	
2129.723	3.65	
2132.35	-0.33	
2134.976	3.32	
2137.6	3.98	
2140.223	0.99	
2142.843	3.65	
2145.462	2.65	
2148.079	-0.33	
2150.694	3.65	
2153.307	5.97	
2155.919	-0.66	
2158.528	-0.66	
2161.137	2.98	
2163.743	3.32	
2166.347	2.65	
2168.95	2.32	
2171.551	1.99	
2174.15	0.66	
2176.748	0	
2179.343	4.64	
2181.937	2.32	
2184.529	2.65	
2187.12	1.99	
2189.708	3.65	
2192.295	3.65	
2194.88	-0.66	
2197.464	2.32	
2200.045	1.99	
2202.625	1.99	
2205.203	0.99	
2207.78	1.33	
2210.355	1.99	
2212.928	0.99	
2215.499	2.98	
2218.068	0.66	
2220.636	5.64	
2223.202	1.33	
2225.766	1.33	
2228.329	4.97	
2230.889	0.66	
2233.449	-2.65	
2236.006	4.64	
2238.562	3.32	
2241.115	0.33	
2243.668	0	
2246.218	0	
2248.767	3.32	
2251.314	-1.66	
2253.859	3.98	
2256.403	1.66	
2258.945	-1.33	
2261.485	1.33	
2264.023	1.99	
2266.56	3.32	
2269.095	4.64	
2271.629	1.66	
2274.16	0.99	
2276.69	0.33	
2279.219	0	
2281.745	0.66	
2284.27	-0.33	
2286.793	-0.66	
2289.315	0.66	
2291.835	-1.66	
2294.353	0.33	
2296.869	3.65	
2299.384	1.66	
2301.897	1.99	
2304.408	0.66	
2306.918	4.31	
2309.426	-0.66	
2311.932	1.33	
2314.437	5.97	
2316.94	1.66	
2319.441	1.66	
2321.941	2.32	
2324.439	1.99	
2326.935	1.33	
2329.43	0.33	
2331.923	0.66	
2334.414	1.99	
2336.904	3.32	
2339.392	3.98	
2341.878	0	
2344.363	0.66	
2346.846	1.99	
2349.328	-0.33	
2351.807	1.99	
2354.285	1.66	
2356.762	1.33	
2359.237	0.33	
2361.71	0.33	
2364.181	-0.33	
2366.651	-2.32	
2369.119	-0.66	
2371.586	1.66	
2374.051	0.66	
2376.514	-0.66	
2378.976	1.99	
2381.436	1.99	
2383.894	-0.33	
2386.351	0.99	
2388.806	0	
2391.259	2.32	
2393.711	0.99	
2396.161	-1.33	
2398.61	1.99	
2401.057	3.32	
2403.502	-0.33	
2405.946	-2.98	
2408.388	0.66	
2410.829	1.99	
2413.268	1.33	
2415.705	-0.33	
2418.141	2.32	
2420.575	-0.99	
2423.007	1.66	
2425.438	1.33	
2427.867	-0.99	
2430.295	1.33	
2432.721	1.99	
2435.145	-1.33	
2437.568	-2.32	
2439.989	0.99	
2442.409	3.98	
2444.827	1.66	
2447.243	4.64	
2449.658	1.99	
2452.071	0.99	
2454.483	1.33	
2456.893	3.32	
2459.302	0.99	
2461.709	0.99	
2464.114	0	
2466.518	2.65	
2468.92	2.32	
2471.32	-0.33	
2473.719	1.66	
2476.117	2.98	
2478.512	0	
2480.907	3.65	
2483.299	3.65	
2485.691	-0.66	
2488.08	0.99	
2490.468	-0.33	
2492.854	1.33	
2495.239	2.98	
2497.623	0.66	
2500.004	0.66	
2502.384	0.33	
2504.763	-1.66	
2507.14	1.66	
2509.515	3.98	
2511.889	1.99	
2514.262	1.99	
2516.633	0.99	
2519.002	0.99	
2521.369	2.65	
2523.736	3.32	
2526.1	-1.66	
2528.463	1.33	
2530.825	0.33	
2533.185	5.31	
2535.543	2.65	
2537.9	0	
2540.255	0	
2542.609	-1.99	
2544.961	-0.66	
2547.312	0.33	
2549.661	-1.99	
2552.009	-1.33	
2554.355	-0.99	
2556.7	2.98	
2559.043	0.66	
2561.384	1.33	
2563.724	1.33	
2566.063	0.33	
2568.4	3.32	
2570.735	0	
2573.069	3.32	
2575.402	0.33	
2577.733	0.99	
2580.062	0.33	
2582.39	1.66	
2584.716	-1.33	
2587.041	-0.33	
2589.364	1.33	
2591.686	0.33	
2594.006	3.65	
2596.325	0.99	
2598.643	0	
2600.958	-1.66	
2603.273	-0.99	
2605.585	0.66	
2607.897	0.99	
2610.206	0	
2612.515	-1.66	
2614.822	2.32	
2617.127	-0.99	
2619.431	0.33	
2621.733	2.65	
2624.034	0.99	
2626.333	0	
2628.631	2.32	
2630.927	0	
2633.222	3.32	
2635.515	2.65	
2637.807	1.33	
2640.098	1.66	
2642.387	3.98	
2644.674	-2.32	
2646.96	0.33	
2649.245	0	
2651.528	3.98	
2653.809	3.65	
2656.089	-0.99	
2658.368	1.33	
2660.645	3.98	
2662.921	1.66	
2665.195	4.64	
2667.468	3.32	
2669.739	2.32	
2672.009	1.99	
2674.277	4.31	
2676.544	1.99	
2678.809	4.97	
2681.073	3.32	
2683.336	3.65	
2685.597	4.31	
2687.856	1.66	
2690.115	6.3	
2692.371	5.97	
2694.626	8.95	
2696.88	4.97	
2699.133	7.63	
2701.383	3.65	
2703.633	7.63	
2705.881	6.96	
2708.127	6.96	
2710.373	9.62	
2712.616	3.98	
2714.859	10.94	
2717.099	7.63	
2719.339	8.62	
2721.577	7.96	
2723.813	7.96	
2726.048	8.29	
2728.282	10.61	
2730.514	8.95	
2732.745	6.3	
2734.974	8.62	
2737.202	9.62	
2739.428	7.96	
2741.653	11.94	
2743.877	5.97	
2746.099	8.29	
2748.32	11.94	
2750.539	9.62	
2752.757	9.95	
2754.974	7.63	
2757.189	9.62	
2759.403	10.61	
2761.615	8.95	
2763.826	10.28	
2766.035	9.29	
2768.243	9.62	
2770.45	9.62	
2772.655	9.95	
2774.859	10.28	
2777.062	9.62	
2779.263	11.61	
2781.462	11.94	
2783.66	13.6	
2785.857	9.62	
2788.053	13.27	
2790.247	12.93	
2792.439	12.93	
2794.631	14.26	
2796.82	15.59	
2799.009	15.92	
2801.196	14.59	
2803.382	15.92	
2805.566	15.59	
2807.749	18.24	
2809.93	17.91	
2812.11	17.25	
2814.289	22.88	
2816.466	20.56	
2818.642	20.56	
2820.817	23.55	
2822.99	23.88	
2825.162	25.21	
2827.332	26.53	
2829.502	27.53	
2831.669	30.84	
2833.836	30.51	
2836	31.84	
2838.164	32.5	
2840.326	34.82	
2842.487	34.16	
2844.647	33.83	
2846.805	37.15	
2848.961	39.14	
2851.117	45.44	
2853.271	42.78	
2855.423	45.44	
2857.575	41.46	
2859.725	45.77	
2861.873	47.1	
2864.02	51.07	
2866.166	55.72	
2868.311	52.07	
2870.454	53.06	
2872.596	59.03	
2874.736	58.04	
2876.875	59.03	
2879.013	60.36	
2881.149	60.69	
2883.284	62.35	
2885.418	64.67	
2887.551	65.34	
2889.682	59.03	
2891.811	59.37	
2893.94	56.38	
2896.067	52.73	
2898.192	61.36	
2900.317	56.38	
2902.439	55.72	
2904.561	58.7	
2906.681	54.72	
2908.8	55.39	
2910.918	52.07	
2913.034	57.71	
2915.149	59.37	
2917.263	56.38	
2919.375	57.38	
2921.486	55.72	
2923.596	59.7	
2925.704	55.72	
2927.811	59.37	
2929.917	59.7	
2932.021	58.04	
2934.124	51.41	
2936.226	54.39	
2938.327	54.39	
2940.426	54.39	
2942.524	48.42	
2944.62	49.75	
2946.715	47.43	
2948.809	45.44	
2950.902	44.44	
2952.993	46.1	
2955.083	44.44	
2957.171	39.8	
2959.259	38.14	
2961.345	35.16	
2963.429	33.5	
2965.513	31.51	
2967.595	29.52	
2969.676	27.53	
2971.755	21.23	
2973.833	26.86	
2975.91	20.23	
2977.986	23.55	
2980.06	19.57	
2982.133	14.59	
2984.205	12.27	
2986.275	17.25	
2988.345	15.59	
2990.412	13.93	
2992.479	10.28	
2994.544	10.28	
2996.608	9.62	
2998.671	7.96	
3000.732	6.3	
3002.792	5.97	
3004.851	3.32	
3006.909	5.97	
3008.965	4.31	
3011.02	6.63	
3013.074	3.98	
3015.126	1.99	
3017.177	3.32	
3019.227	5.31	
3021.276	2.65	
3023.323	4.64	
3025.369	5.64	
3027.414	1.99	
3029.458	3.65	
3031.5	-0.33	
3033.541	1.99	
3035.581	4.31	
3037.619	-1.66	
3039.656	1.66	
3041.692	3.32	
3043.727	1.33	
3045.76	0.66	
3047.793	0.33	
3049.824	4.64	
3051.853	-0.33	
3053.882	0.33	
3055.909	-0.33	
