RamanShift:204		
0.351	-313.66	
4.587	-47.93	
8.82	-22.06	
13.049	-16.42	
17.275	-11.44	
21.497	-9.12	
25.716	-3.15	
29.931	-3.48	
34.142	-5.14	
38.351	-4.48	
42.555	-2.49	
46.756	-7.46	
50.954	-1.16	
55.148	-2.82	
59.339	-1.82	
63.527	-0.17	
67.71	-1.49	
71.891	-1.16	
76.068	-3.15	
80.241	-3.15	
84.411	2.82	
88.578	0.83	
92.741	-1.49	
96.901	-0.83	
101.057	-1.49	
105.21	-1.16	
109.359	2.82	
113.505	0.83	
117.648	-1.82	
121.787	1.82	
125.923	4.48	
130.055	7.13	
134.184	2.49	
138.31	5.8	
142.432	6.14	
146.551	8.79	
150.667	7.13	
154.779	7.79	
158.887	11.77	
162.993	10.78	
167.095	12.44	
171.193	14.76	
175.289	13.43	
179.381	15.75	
183.469	14.1	
187.554	17.08	
191.636	20.07	
195.715	17.74	
199.79	25.04	
203.862	16.75	
207.931	16.75	
211.996	23.38	
216.058	19.73	
220.116	18.41	
224.172	22.39	
228.224	25.37	
232.272	21.06	
236.318	22.72	
240.36	27.36	
244.399	21.72	
248.434	21.39	
252.466	23.05	
256.495	19.73	
260.521	23.71	
264.544	25.04	
268.563	22.06	
272.579	19.73	
276.591	16.75	
280.601	17.74	
284.607	17.74	
288.61	16.42	
292.609	19.07	
296.606	13.43	
300.599	21.72	
304.589	21.39	
308.575	24.05	
312.559	20.4	
316.539	19.73	
320.516	19.4	
324.49	24.38	
328.461	21.72	
332.428	16.09	
336.392	21.06	
340.353	19.4	
344.311	15.75	
348.266	11.11	
352.217	13.76	
356.165	18.41	
360.11	16.42	
364.052	13.76	
367.991	21.06	
371.926	20.73	
375.859	19.4	
379.788	26.37	
383.714	27.03	
387.637	27.69	
391.557	32.34	
395.473	36.32	
399.387	41.95	
403.297	51.24	
407.204	54.23	
411.108	62.19	
415.009	57.54	
418.907	46.27	
422.802	43.94	
426.693	40.3	
430.581	32.34	
434.467	32.34	
438.349	29.68	
442.228	26.04	
446.104	29.35	
449.977	29.68	
453.847	26.37	
457.713	33.66	
461.577	41.62	
465.438	47.59	
469.295	62.52	
473.149	77.11	
477.001	86.4	
480.849	89.05	
484.694	83.08	
488.536	77.44	
492.375	61.52	
496.211	51.24	
500.044	38.97	
503.874	31.67	
507.701	25.04	
511.525	24.38	
515.346	19.4	
519.163	17.08	
522.978	24.05	
526.79	20.07	
530.598	23.71	
534.404	23.71	
538.207	27.36	
542.006	26.7	
545.803	27.69	
549.596	23.05	
553.387	21.39	
557.175	22.39	
560.959	19.4	
564.741	11.11	
568.519	14.43	
572.295	15.09	
576.068	11.44	
579.837	17.74	
583.604	15.09	
587.368	11.11	
591.128	8.79	
594.886	12.44	
598.641	14.1	
602.393	15.09	
606.142	10.12	
609.887	10.78	
613.63	9.78	
617.37	15.09	
621.108	12.11	
624.842	13.76	
628.573	16.75	
632.301	21.39	
636.027	17.41	
639.749	17.74	
643.468	19.73	
647.185	21.39	
650.899	25.04	
654.609	28.02	
658.317	26.7	
662.022	28.69	
665.724	32.67	
669.423	33.33	
673.119	31.67	
676.813	31.01	
680.503	24.05	
684.191	19.4	
687.875	18.08	
691.557	14.1	
695.236	9.78	
698.912	10.45	
702.585	13.76	
706.256	11.44	
709.923	14.1	
713.588	11.44	
717.249	13.43	
720.908	9.78	
724.564	5.8	
728.217	12.44	
731.868	9.78	
735.515	8.46	
739.16	7.13	
742.801	7.13	
746.44	8.79	
750.076	8.13	
753.71	10.78	
757.34	9.12	
760.968	7.13	
764.593	7.46	
768.215	15.09	
771.834	17.74	
775.45	15.42	
779.064	15.42	
782.675	16.09	
786.283	14.43	
789.888	18.74	
793.49	23.05	
797.09	26.04	
800.686	33	
804.281	42.62	
807.872	54.23	
811.46	69.81	
815.046	77.44	
818.629	70.48	
822.209	70.48	
825.786	69.81	
829.361	69.81	
832.933	80.43	
836.502	99	
840.068	112.93	
843.632	116.91	
847.193	120.56	
850.751	111.94	
854.306	103.98	
857.859	95.68	
861.409	80.43	
864.956	71.14	
868.5	54.89	
872.042	42.95	
875.581	33.66	
879.117	21.06	
882.651	22.06	
886.182	18.74	
889.71	19.73	
893.235	24.05	
896.758	31.67	
900.278	36.32	
903.795	39.96	
907.31	43.61	
910.822	54.23	
914.331	55.88	
917.838	47.59	
921.341	54.89	
924.843	47.59	
928.341	39.3	
931.837	29.68	
935.33	26.37	
938.821	21.72	
942.308	17.41	
945.793	12.77	
949.276	12.77	
952.756	9.78	
956.233	16.42	
959.707	17.08	
963.179	21.39	
966.649	30.35	
970.115	26.37	
973.579	28.02	
977.04	22.06	
980.499	22.06	
983.955	22.06	
987.408	20.07	
990.859	19.07	
994.307	18.08	
997.753	17.74	
1001.196	20.4	
1004.636	20.73	
1008.074	21.06	
1011.509	28.69	
1014.941	29.02	
1018.371	38.31	
1021.798	49.91	
1025.223	59.2	
1028.645	66.17	
1032.064	77.11	
1035.481	87.72	
1038.896	99.33	
1042.307	105.3	
1045.716	109.61	
1049.123	106.63	
1052.527	113.26	
1055.928	114.26	
1059.327	107.96	
1062.723	100.99	
1066.117	100.33	
1069.508	87.39	
1072.897	83.74	
1076.283	83.08	
1079.666	75.12	
1083.047	83.41	
1086.425	73.46	
1089.801	73.46	
1093.174	71.14	
1096.545	75.12	
1099.913	71.47	
1103.279	80.1	
1106.642	75.45	
1110.002	73.46	
1113.36	66.83	
1116.716	53.89	
1120.069	47.59	
1123.419	32.34	
1126.767	27.03	
1130.113	24.71	
1133.456	15.75	
1136.796	15.42	
1140.134	14.76	
1143.47	14.43	
1146.802	14.1	
1150.133	12.11	
1153.461	14.76	
1156.786	16.42	
1160.109	16.09	
1163.43	13.43	
1166.748	11.77	
1170.063	16.42	
1173.376	19.73	
1176.687	19.4	
1179.995	20.73	
1183.3	24.38	
1186.603	27.03	
1189.904	26.7	
1193.202	29.02	
1196.498	26.7	
1199.791	27.69	
1203.082	31.34	
1206.37	35.98	
1209.656	34.66	
1212.94	36.65	
1216.221	37.64	
1219.499	34.33	
1222.775	39.63	
1226.049	37.97	
1229.32	41.29	
1232.589	42.95	
1235.856	48.26	
1239.12	51.9	
1242.381	56.22	
1245.64	49.91	
1248.897	51.24	
1252.151	49.58	
1255.403	53.89	
1258.652	52.24	
1261.9	48.59	
1265.144	48.92	
1268.386	48.26	
1271.626	50.58	
1274.864	49.25	
1278.099	49.91	
1281.331	42.29	
1284.562	39.63	
1287.789	40.3	
1291.015	41.29	
1294.238	38.97	
1297.459	43.28	
1300.677	44.28	
1303.893	43.28	
1307.106	41.95	
1310.318	43.28	
1313.526	43.28	
1316.733	42.29	
1319.937	44.94	
1323.139	38.31	
1326.338	38.31	
1329.535	40.3	
1332.73	40.3	
1335.922	37.98	
1339.112	40.96	
1342.3	33.66	
1345.485	43.95	
1348.668	40.3	
1351.848	38.97	
1355.027	38.31	
1358.203	34.66	
1361.376	45.6	
1364.547	39.3	
1367.716	39.3	
1370.883	39.63	
1374.047	42.95	
1377.209	35.99	
1380.369	37.98	
1383.526	33	
1386.681	36.98	
1389.834	34.66	
1392.984	29.35	
1396.132	39.97	
1399.278	39.97	
1402.421	34	
1405.562	36.65	
1408.701	27.36	
1411.838	31.67	
1414.972	36.65	
1418.104	34.33	
1421.234	33.33	
1424.361	32.01	
1427.486	40.96	
1430.609	36.98	
1433.73	35.65	
1436.848	34	
1439.964	38.97	
1443.078	45.6	
1446.189	60.53	
1449.299	66.5	
1452.405	67.49	
1455.51	84.08	
1458.613	83.41	
1461.713	84.08	
1464.811	85.4	
1467.906	70.81	
1471	69.15	
1474.091	58.21	
1477.18	41.62	
1480.267	41.29	
1483.351	30.35	
1486.433	21.06	
1489.513	22.39	
1492.591	18.74	
1495.666	16.09	
1498.74	14.43	
1501.811	15.75	
1504.879	7.79	
1507.946	11.77	
1511.01	6.8	
1514.073	7.46	
1517.132	10.78	
1520.19	7.79	
1523.246	7.79	
1526.299	4.81	
1529.35	6.14	
1532.399	2.49	
1535.446	8.79	
1538.49	10.12	
1541.532	8.79	
1544.572	8.13	
1547.61	7.79	
1550.646	6.8	
1553.68	7.46	
1556.711	8.46	
1559.74	9.12	
1562.767	10.12	
1565.792	11.11	
1568.814	5.47	
1571.835	12.44	
1574.853	7.79	
1577.869	7.46	
1580.883	6.47	
1583.895	6.14	
1586.904	6.14	
1589.912	3.15	
1592.917	3.15	
1595.92	7.79	
1598.921	9.45	
1601.92	5.47	
1604.917	13.43	
1607.911	9.12	
1610.903	7.13	
1613.894	7.46	
1616.882	4.81	
1619.868	4.15	
1622.851	5.8	
1625.833	3.81	
1628.812	3.15	
1631.79	3.81	
1634.765	6.47	
1637.738	4.81	
1640.709	8.46	
1643.678	3.48	
1646.645	6.8	
1649.609	3.15	
1652.572	0.83	
1655.532	6.47	
1658.49	3.15	
1661.447	6.14	
1664.401	4.48	
1667.353	4.48	
1670.302	-0.17	
1673.25	3.81	
1676.196	3.48	
1679.139	1.16	
1682.081	7.13	
1685.02	3.81	
1687.957	11.11	
1690.893	4.15	
1693.826	-1.16	
1696.757	6.14	
1699.686	3.81	
1702.612	3.15	
1705.537	6.8	
1708.46	-2.82	
1711.38	1.82	
1714.299	5.14	
1717.215	0.17	
1720.13	8.46	
1723.042	0.17	
1725.952	5.14	
1728.86	2.49	
1731.767	1.82	
1734.671	6.14	
1737.573	0.83	
1740.473	6.14	
1743.37	3.48	
1746.266	2.16	
1749.16	2.16	
1752.052	4.48	
1754.942	6.8	
1757.829	3.81	
1760.715	4.48	
1763.598	4.48	
1766.48	3.81	
1769.36	3.48	
1772.237	4.81	
1775.112	2.49	
1777.986	3.48	
1780.857	4.48	
1783.727	0.83	
1786.594	5.47	
1789.459	-0.5	
1792.323	8.13	
1795.184	6.14	
1798.043	3.48	
1800.9	3.81	
1803.756	1.82	
1806.609	3.15	
1809.46	5.14	
1812.309	2.49	
1815.157	1.49	
1818.002	2.82	
1820.845	2.16	
1823.686	-0.83	
1826.526	1.16	
1829.363	3.15	
1832.198	3.81	
1835.031	2.16	
1837.863	5.14	
1840.692	2.49	
1843.519	3.15	
1846.345	1.82	
1849.168	3.48	
1851.989	-2.16	
1854.809	5.14	
1857.626	5.14	
1860.441	-2.16	
1863.255	-0.5	
1866.066	-0.83	
1868.876	1.16	
1871.684	1.16	
1874.489	1.82	
1877.293	0.83	
1880.095	3.81	
1882.894	0.17	
1885.692	2.82	
1888.488	0.17	
1891.282	-0.5	
1894.074	2.82	
1896.864	2.82	
1899.652	-1.16	
1902.438	1.16	
1905.222	5.14	
1908.004	3.81	
1910.785	1.82	
1913.563	1.49	
1916.339	0.83	
1919.114	1.16	
1921.886	-0.83	
1924.657	3.81	
1927.426	1.49	
1930.193	5.14	
1932.957	4.48	
1935.72	-1.16	
1938.481	4.15	
1941.24	5.14	
1943.998	5.14	
1946.753	2.16	
1949.506	1.49	
1952.258	-2.16	
1955.007	3.81	
1957.755	4.81	
1960.501	6.47	
1963.245	0.83	
1965.986	-0.5	
1968.726	0.17	
1971.465	-0.5	
1974.201	0.83	
1976.935	4.48	
1979.668	5.8	
1982.398	1.16	
1985.127	-0.5	
1987.854	3.15	
1990.579	2.82	
1993.302	1.49	
1996.023	3.48	
1998.742	3.48	
2001.46	4.48	
2004.175	0.17	
2006.889	0.17	
2009.6	4.48	
2012.31	5.47	
2015.018	2.49	
2017.725	3.15	
2020.429	3.48	
2023.131	2.82	
2025.832	3.81	
2028.531	2.82	
2031.228	0.83	
2033.923	2.49	
2036.616	2.82	
2039.307	1.16	
2041.997	1.16	
2044.684	1.82	
2047.37	-0.17	
2050.054	3.81	
2052.736	0.83	
2055.416	2.16	
2058.095	5.14	
2060.771	2.82	
2063.446	3.15	
2066.119	1.49	
2068.79	0.83	
2071.459	0.83	
2074.127	1.49	
2076.792	3.81	
2079.456	3.15	
2082.118	0.83	
2084.778	5.14	
2087.436	0.17	
2090.093	3.15	
2092.747	0.83	
2095.4	0.83	
2098.051	2.49	
2100.7	3.48	
2103.348	-0.17	
2105.993	2.49	
2108.637	2.49	
2111.279	0.5	
2113.919	2.16	
2116.558	-0.5	
2119.194	0.83	
2121.829	1.16	
2124.462	3.48	
2127.093	2.16	
2129.723	2.49	
2132.35	-1.82	
2134.976	0.83	
2137.6	1.16	
2140.223	5.14	
2142.843	3.15	
2145.462	2.82	
2148.079	3.48	
2150.694	0.83	
2153.307	1.16	
2155.919	1.82	
2158.528	1.82	
2161.137	2.49	
2163.743	3.15	
2166.347	-0.83	
2168.95	3.15	
2171.551	6.47	
2174.15	2.82	
2176.748	4.15	
2179.343	4.48	
2181.937	-2.49	
2184.529	0.5	
2187.12	2.49	
2189.708	4.48	
2192.295	4.48	
2194.88	0.5	
2197.464	3.48	
2200.045	2.49	
2202.625	0.5	
2205.203	1.82	
2207.78	2.82	
2210.355	-1.16	
2212.928	1.16	
2215.499	-1.16	
2218.068	5.47	
2220.636	-0.5	
2223.202	2.16	
2225.766	0.5	
2228.329	-0.17	
2230.889	0.83	
2233.449	1.82	
2236.006	2.16	
2238.562	3.15	
2241.115	4.15	
2243.668	3.48	
2246.218	2.16	
2248.767	3.48	
2251.314	-0.17	
2253.859	-0.17	
2256.403	4.15	
2258.945	2.82	
2261.485	4.15	
2264.023	1.49	
2266.56	3.81	
2269.095	2.49	
2271.629	1.49	
2274.16	1.82	
2276.69	3.15	
2279.219	-0.17	
2281.745	2.49	
2284.27	0.83	
2286.793	1.16	
2289.315	2.16	
2291.835	2.16	
2294.353	3.15	
2296.869	3.15	
2299.384	1.82	
2301.897	3.48	
2304.408	-0.17	
2306.918	2.16	
2309.426	2.82	
2311.932	1.82	
2314.437	1.82	
2316.94	4.48	
2319.441	2.82	
2321.941	4.15	
2324.439	1.82	
2326.935	2.49	
2329.43	4.15	
2331.923	2.49	
2334.414	2.16	
2336.904	1.82	
2339.392	3.15	
2341.878	2.49	
2344.363	0.17	
2346.846	3.15	
2349.328	5.8	
2351.807	0.5	
2354.285	-0.5	
2356.762	0.5	
2359.237	2.16	
2361.71	1.49	
2364.181	1.82	
2366.651	4.48	
2369.119	2.49	
2371.586	1.82	
2374.051	-0.17	
2376.514	1.16	
2378.976	3.81	
2381.436	4.15	
2383.894	2.49	
2386.351	3.81	
2388.806	5.8	
2391.259	1.82	
2393.711	2.16	
2396.161	3.48	
2398.61	1.49	
2401.057	-2.82	
2403.502	-0.17	
2405.946	-0.5	
2408.388	-1.16	
2410.829	2.82	
2413.268	1.82	
2415.705	1.82	
2418.141	-1.16	
2420.575	-3.48	
2423.007	-0.17	
2425.438	-0.5	
2427.867	0.17	
2430.295	2.16	
2432.721	-0.17	
2435.145	2.16	
2437.568	2.16	
2439.989	-1.16	
2442.409	1.16	
2444.827	0.83	
2447.243	-0.83	
2449.658	-2.49	
2452.071	3.81	
2454.483	-1.82	
2456.893	1.82	
2459.302	-1.16	
2461.709	1.16	
2464.114	1.16	
2466.518	1.82	
2468.92	0.5	
2471.32	0.5	
2473.719	-0.17	
2476.117	0.83	
2478.512	1.49	
2480.907	2.16	
2483.299	0.5	
2485.691	0.83	
2488.08	0.17	
2490.468	-0.17	
2492.854	2.82	
2495.239	2.16	
2497.623	2.49	
2500.004	-0.17	
2502.384	-1.82	
2504.763	3.15	
2507.14	0.83	
2509.515	-0.83	
2511.889	4.15	
2514.262	0.5	
2516.633	-0.5	
2519.002	-1.16	
2521.369	2.49	
2523.736	3.81	
2526.1	4.81	
2528.463	1.16	
2530.825	-0.83	
2533.185	1.16	
2535.543	2.49	
2537.9	1.16	
2540.255	-0.5	
2542.609	3.15	
2544.961	0.83	
2547.312	-3.15	
2549.661	-3.15	
2552.009	1.82	
2554.355	0.5	
2556.7	1.16	
2559.043	0.5	
2561.384	4.15	
2563.724	1.49	
2566.063	1.16	
2568.4	3.15	
2570.735	-0.83	
2573.069	0.5	
2575.402	0.83	
2577.733	0.17	
2580.062	1.49	
2582.39	-1.49	
2584.716	-0.83	
2587.041	4.15	
2589.364	4.15	
2591.686	1.82	
2594.006	-2.16	
2596.325	1.16	
2598.643	1.16	
2600.958	-4.81	
2603.273	3.15	
2605.585	-0.17	
2607.897	4.48	
2610.206	1.82	
2612.515	2.49	
2614.822	1.16	
2617.127	1.49	
2619.431	-1.16	
2621.733	2.82	
2624.034	0.17	
2626.333	-0.5	
2628.631	0.83	
2630.927	0.17	
2633.222	3.81	
2635.515	-1.82	
2637.807	-0.83	
2640.098	-1.16	
2642.387	2.49	
2644.674	2.49	
2646.96	0.17	
2649.245	5.8	
2651.528	3.48	
2653.809	1.49	
2656.089	2.49	
2658.368	1.49	
2660.645	1.49	
2662.921	2.16	
2665.195	0.5	
2667.468	4.48	
2669.739	4.15	
2672.009	5.14	
2674.277	0.83	
2676.544	2.49	
2678.809	1.16	
2681.073	-0.17	
2683.336	5.14	
2685.597	1.82	
2687.856	6.47	
2690.115	0.83	
2692.371	4.48	
2694.626	1.82	
2696.88	4.48	
2699.133	4.81	
2701.383	2.16	
2703.633	4.48	
2705.881	2.49	
2708.127	3.48	
2710.373	2.49	
2712.616	7.79	
2714.859	4.48	
2717.099	8.13	
2719.339	6.47	
2721.577	6.8	
2723.813	8.46	
2726.048	4.81	
2728.282	6.8	
2730.514	5.47	
2732.745	5.8	
2734.974	5.8	
2737.202	9.78	
2739.428	7.13	
2741.653	8.13	
2743.877	8.13	
2746.099	9.45	
2748.32	11.44	
2750.539	4.15	
2752.757	5.8	
2754.974	4.81	
2757.189	7.13	
2759.403	6.8	
2761.615	6.14	
2763.826	9.78	
2766.035	7.13	
2768.243	6.8	
2770.45	10.78	
2772.655	7.13	
2774.859	6.14	
2777.062	8.13	
2779.263	8.79	
2781.462	9.45	
2783.66	7.13	
2785.857	8.46	
2788.053	6.8	
2790.247	4.15	
2792.439	11.44	
2794.631	4.81	
2796.82	13.1	
2799.009	8.46	
2801.196	9.78	
2803.382	11.44	
2805.566	10.45	
2807.749	12.77	
2809.93	10.78	
2812.11	12.11	
2814.289	15.75	
2816.466	12.44	
2818.642	13.1	
2820.817	13.43	
2822.99	14.43	
2825.162	19.4	
2827.332	16.42	
2829.502	18.08	
2831.669	14.76	
2833.836	19.07	
2836	20.4	
2838.164	16.75	
2840.326	21.39	
2842.487	20.73	
2844.647	26.03	
2846.805	23.71	
2848.961	25.37	
2851.117	26.37	
2853.271	26.7	
2855.423	31.01	
2857.575	26.7	
2859.725	31.34	
2861.873	35.32	
2864.02	34.99	
2866.166	38.64	
2868.311	39.63	
2870.454	42.62	
2872.596	45.93	
2874.736	47.59	
2876.875	49.58	
2879.013	49.58	
2881.149	49.58	
2883.284	50.25	
2885.418	48.59	
2887.551	52.24	
2889.682	56.22	
2891.811	50.25	
2893.94	48.59	
2896.067	49.91	
2898.192	45.27	
2900.317	47.92	
2902.439	43.94	
2904.561	47.59	
2906.681	51.24	
2908.8	50.91	
2910.918	42.95	
2913.034	44.61	
2915.149	46.6	
2917.263	40.3	
2919.375	44.61	
2921.486	40.63	
2923.596	47.59	
2925.704	41.95	
2927.811	41.95	
2929.917	40.3	
2932.021	42.62	
2934.124	44.94	
2936.226	44.94	
2938.327	42.62	
2940.426	42.95	
2942.524	40.3	
2944.62	41.62	
2946.715	42.29	
2948.809	34.33	
2950.902	39.63	
2952.993	36.98	
2955.083	37.31	
2957.171	36.98	
2959.259	34.66	
2961.345	33.99	
2963.429	27.36	
2965.513	26.7	
2967.595	26.03	
2969.676	26.03	
2971.755	22.72	
2973.833	22.05	
2975.91	21.06	
2977.986	21.72	
2980.06	18.41	
2982.133	18.08	
2984.205	13.1	
2986.275	11.44	
2988.345	12.44	
2990.412	7.46	
2992.479	11.44	
2994.544	8.13	
2996.608	9.78	
2998.671	6.8	
3000.732	6.14	
3002.792	3.15	
3004.851	5.8	
3006.909	3.15	
3008.965	3.48	
3011.02	3.81	
3013.074	3.48	
3015.126	4.15	
3017.177	3.48	
3019.227	3.81	
3021.276	0.5	
3023.323	1.82	
3025.369	1.82	
3027.414	2.16	
3029.458	1.82	
3031.5	0.17	
3033.541	2.49	
3035.581	0.83	
3037.619	1.82	
3039.656	3.48	
3041.692	3.81	
3043.727	3.48	
3045.76	0.17	
3047.793	4.48	
3049.824	1.49	
3051.853	-0.5	
3053.882	-1.16	
3055.909	0.17	
