RamanShift:204		
0.351	-56.45	
4.587	-15.3	
8.82	-10.32	
13.049	-8.33	
17.275	-8.66	
21.497	-7.67	
25.716	-7.01	
29.931	-6.34	
34.142	-4.68	
38.351	-3.69	
42.555	-2.69	
46.756	-2.36	
50.954	-1.7	
55.148	-2.36	
59.339	-0.04	
63.527	-4.68	
67.71	2.61	
71.891	-1.37	
76.068	-3.36	
80.241	1.29	
84.411	-0.04	
88.578	3.61	
92.741	3.28	
96.901	7.59	
101.057	9.91	
105.21	11.23	
109.359	10.9	
113.505	12.56	
117.648	13.89	
121.787	14.22	
125.923	18.2	
130.055	19.53	
134.184	21.85	
138.31	25.5	
142.432	28.48	
146.551	29.14	
150.667	33.79	
154.779	34.45	
158.887	39.09	
162.993	41.42	
167.095	42.41	
171.193	44.73	
175.289	46.39	
179.381	50.37	
183.469	47.39	
187.554	50.37	
191.636	55.68	
195.715	50.04	
199.79	48.38	
203.862	51.7	
207.931	49.71	
211.996	47.72	
216.058	46.72	
220.116	43.07	
224.172	46.06	
228.224	39.09	
232.272	43.41	
236.318	34.45	
240.36	40.42	
244.399	34.78	
248.434	33.46	
252.466	27.82	
256.495	27.82	
260.521	26.16	
264.544	24.17	
268.563	29.14	
272.579	20.85	
276.591	24.83	
280.601	23.51	
284.607	23.84	
288.61	21.52	
292.609	25.16	
296.606	20.19	
300.599	21.52	
304.589	26.16	
308.575	21.18	
312.559	26.49	
316.539	30.8	
320.516	28.48	
324.49	32.46	
328.461	32.79	
332.428	35.78	
336.392	35.45	
340.353	39.09	
344.311	39.43	
348.266	40.42	
352.217	32.46	
356.165	30.8	
360.11	29.81	
364.052	19.19	
367.991	20.52	
371.926	19.86	
375.859	17.87	
379.788	18.53	
383.714	16.54	
387.637	18.86	
391.557	15.21	
395.473	19.19	
399.387	20.19	
403.297	19.19	
407.204	17.54	
411.108	14.88	
415.009	17.54	
418.907	18.53	
422.802	20.19	
426.693	21.52	
430.581	26.49	
434.467	27.82	
438.349	30.8	
442.228	44.73	
446.104	46.72	
449.977	49.38	
453.847	46.72	
457.713	47.05	
461.577	39.76	
465.438	40.42	
469.295	44.4	
473.149	49.04	
477.001	53.69	
480.849	42.41	
484.694	41.42	
488.536	35.45	
492.375	33.46	
496.211	35.11	
500.044	28.48	
503.874	33.46	
507.701	33.12	
511.525	37.1	
515.346	32.46	
519.163	41.75	
522.978	35.78	
526.79	30.47	
530.598	30.14	
534.404	28.81	
538.207	25.5	
542.006	22.51	
545.803	23.17	
549.596	19.86	
553.387	27.82	
557.175	27.49	
560.959	20.52	
564.741	24.5	
568.519	26.16	
572.295	30.47	
576.068	31.13	
579.837	36.44	
583.604	43.74	
587.368	42.74	
591.128	54.68	
594.886	58.33	
598.641	58	
602.393	63.97	
606.142	73.25	
609.887	75.58	
613.63	83.54	
617.37	71.27	
621.108	63.31	
624.842	53.36	
628.573	43.41	
632.301	31.8	
636.027	26.49	
639.749	31.47	
643.468	21.52	
647.185	21.18	
650.899	18.2	
654.609	21.18	
658.317	17.54	
662.022	17.87	
665.724	16.87	
669.423	14.22	
673.119	16.21	
676.813	13.56	
680.503	13.22	
684.191	14.22	
687.875	11.9	
691.557	12.89	
695.236	12.89	
698.912	15.88	
702.585	14.55	
706.256	10.9	
709.923	10.24	
713.588	14.88	
717.249	14.22	
720.908	12.56	
724.564	11.57	
728.217	12.89	
731.868	14.22	
735.515	15.55	
739.16	10.24	
742.801	14.88	
746.44	10.9	
750.076	13.89	
753.71	9.24	
757.34	12.89	
760.968	15.55	
764.593	14.22	
768.215	13.22	
771.834	10.57	
775.45	14.22	
779.064	15.21	
782.675	16.54	
786.283	18.2	
789.888	16.21	
793.49	22.84	
797.09	21.18	
800.686	23.17	
804.281	33.79	
807.872	30.14	
811.46	38.76	
815.046	42.08	
818.629	49.38	
822.209	50.37	
825.786	56.34	
829.361	60.65	
832.933	76.57	
836.502	92.16	
840.068	113.72	
843.632	151.53	
847.193	201.94	
850.751	252.69	
854.306	304.77	
857.859	328.32	
861.409	325.66	
864.956	321.68	
868.5	311.4	
872.042	314.72	
875.581	325	
879.117	336.61	
882.651	340.59	
886.182	309.41	
889.71	258.33	
893.235	197.63	
896.758	134.61	
900.278	89.51	
903.795	67.95	
907.31	51.7	
910.822	40.42	
914.331	31.47	
917.838	30.14	
921.341	30.8	
924.843	24.5	
928.341	25.83	
931.837	23.17	
935.33	24.17	
938.821	21.52	
942.308	19.19	
945.793	20.85	
949.276	18.53	
952.756	20.85	
956.233	21.18	
959.707	24.83	
963.179	22.18	
966.649	19.86	
970.115	19.86	
973.579	24.5	
977.04	25.5	
980.499	23.17	
983.955	27.49	
987.408	26.82	
990.859	29.48	
994.307	36.44	
997.753	46.72	
1001.196	49.71	
1004.636	52.69	
1008.074	59.33	
1011.509	58.33	
1014.941	70.6	
1018.371	71.6	
1021.798	80.22	
1025.223	85.86	
1028.645	93.49	
1032.064	91.16	
1035.481	103.1	
1038.896	98.46	
1042.307	103.44	
1045.716	101.78	
1049.123	98.46	
1052.527	100.45	
1055.928	93.15	
1059.327	99.46	
1062.723	94.15	
1066.117	94.48	
1069.508	97.47	
1072.897	104.76	
1076.283	116.37	
1079.666	127.98	
1083.047	136.93	
1086.425	129.64	
1089.801	105.76	
1093.174	89.84	
1096.545	65.3	
1099.913	50.04	
1103.279	38.43	
1106.642	34.78	
1110.002	26.82	
1113.36	20.52	
1116.716	25.83	
1120.069	24.83	
1123.419	20.52	
1126.767	17.87	
1130.113	16.87	
1133.456	17.87	
1136.796	19.19	
1140.134	18.53	
1143.47	22.18	
1146.802	18.2	
1150.133	19.19	
1153.461	21.18	
1156.786	22.84	
1160.109	25.5	
1163.43	25.83	
1166.748	22.84	
1170.063	20.85	
1173.376	30.14	
1176.687	25.16	
1179.995	28.48	
1183.3	32.13	
1186.603	35.45	
1189.904	36.11	
1193.202	35.45	
1196.498	41.42	
1199.791	46.72	
1203.082	45.06	
1206.37	45.06	
1209.656	41.75	
1212.94	45.06	
1216.221	45.4	
1219.499	40.09	
1222.775	44.73	
1226.049	46.06	
1229.32	51.37	
1232.589	47.72	
1235.856	54.35	
1239.12	57.67	
1242.381	63.64	
1245.64	68.28	
1248.897	67.95	
1252.151	73.26	
1255.403	74.58	
1258.652	83.21	
1261.9	82.87	
1265.144	86.19	
1268.386	86.19	
1271.626	80.22	
1274.864	83.87	
1278.099	79.56	
1281.331	78.89	
1284.562	70.6	
1287.789	71.27	
1291.015	71.27	
1294.238	64.3	
1297.459	62.64	
1300.677	62.64	
1303.893	56.67	
1307.106	54.02	
1310.318	59.99	
1313.526	52.69	
1316.733	59.33	
1319.937	61.32	
1323.139	58.66	
1326.338	61.98	
1329.535	62.97	
1332.73	64.96	
1335.922	65.3	
1339.112	71.93	
1342.3	65.3	
1345.485	67.95	
1348.668	68.28	
1351.848	73.26	
1355.027	65.3	
1358.203	73.26	
1361.376	71.6	
1364.547	71.93	
1367.716	65.96	
1370.883	65.3	
1374.047	70.27	
1377.209	67.29	
1380.369	68.61	
1383.526	70.93	
1386.681	69.61	
1389.834	70.93	
1392.984	76.24	
1396.132	76.57	
1399.278	72.59	
1402.421	76.9	
1405.562	79.56	
1408.701	80.55	
1411.838	86.85	
1414.972	79.89	
1418.104	83.21	
1421.234	87.52	
1424.361	89.18	
1427.486	85.86	
1430.609	100.12	
1433.73	95.81	
1436.848	94.48	
1439.964	104.1	
1443.078	103.11	
1446.189	115.38	
1449.299	131.63	
1452.405	143.57	
1455.51	144.56	
1458.613	152.86	
1461.713	141.25	
1464.811	121.68	
1467.906	107.09	
1471	88.18	
1474.091	71.6	
1477.18	60.65	
1480.267	53.36	
1483.351	49.71	
1486.433	45.4	
1489.513	41.42	
1492.591	40.09	
1495.666	41.08	
1498.74	38.43	
1501.811	32.46	
1504.879	34.78	
1507.946	30.14	
1511.01	31.47	
1514.073	35.78	
1517.132	26.16	
1520.19	31.13	
1523.246	31.13	
1526.299	27.82	
1529.35	29.81	
1532.399	26.82	
1535.446	28.48	
1538.49	28.15	
1541.532	26.82	
1544.572	29.14	
1547.61	24.83	
1550.646	25.16	
1553.68	21.18	
1556.711	27.15	
1559.74	22.51	
1562.767	18.86	
1565.792	18.86	
1568.814	22.84	
1571.835	20.85	
1574.853	24.17	
1577.869	23.17	
1580.883	20.52	
1583.895	20.52	
1586.904	17.2	
1589.912	19.19	
1592.917	18.86	
1595.92	22.84	
1598.921	17.87	
1601.92	22.84	
1604.917	21.18	
1607.911	16.21	
1610.903	18.53	
1613.894	18.86	
1616.882	20.19	
1619.868	18.53	
1622.851	22.18	
1625.833	19.19	
1628.812	18.2	
1631.79	20.52	
1634.765	19.19	
1637.738	21.18	
1640.709	27.15	
1643.678	23.17	
1646.645	21.52	
1649.609	23.51	
1652.572	27.15	
1655.532	25.5	
1658.49	25.83	
1661.447	34.45	
1664.401	29.48	
1667.353	35.78	
1670.302	35.45	
1673.25	38.43	
1676.196	41.75	
1679.139	48.38	
1682.081	46.06	
1685.02	52.69	
1687.957	47.05	
1690.893	55.35	
1693.826	58.66	
1696.757	59.33	
1699.686	56.01	
1702.612	62.64	
1705.537	65.63	
1708.46	66.62	
1711.38	58.33	
1714.299	50.7	
1717.215	50.37	
1720.13	46.06	
1723.042	43.74	
1725.952	37.1	
1728.86	39.09	
1731.767	28.48	
1734.671	29.81	
1737.573	30.47	
1740.473	25.16	
1743.37	26.49	
1746.266	24.5	
1749.16	25.83	
1752.052	22.84	
1754.942	20.52	
1757.829	22.18	
1760.715	17.2	
1763.598	20.52	
1766.48	15.88	
1769.36	13.22	
1772.237	13.56	
1775.112	13.89	
1777.986	12.89	
1780.857	14.22	
1783.727	13.89	
1786.594	12.23	
1789.459	12.89	
1792.323	11.9	
1795.184	14.88	
1798.043	10.9	
1800.9	8.58	
1803.756	9.91	
1806.609	12.89	
1809.46	11.9	
1812.309	7.59	
1815.157	10.57	
1818.002	12.56	
1820.845	10.57	
1823.686	10.9	
1826.526	12.56	
1829.363	13.22	
1832.198	7.59	
1835.031	8.91	
1837.863	8.58	
1840.692	9.58	
1843.519	7.59	
1846.345	7.59	
1849.168	8.58	
1851.989	9.58	
1854.809	6.59	
1857.626	4.93	
1860.441	9.58	
1863.255	10.24	
1866.066	5.6	
1868.876	10.9	
1871.684	11.23	
1874.489	12.23	
1877.293	8.25	
1880.095	7.59	
1882.894	6.59	
1885.692	5.27	
1888.488	10.24	
1891.282	6.92	
1894.074	7.25	
1896.864	7.25	
1899.652	10.24	
1902.438	7.92	
1905.222	3.61	
1908.004	4.27	
1910.785	7.92	
1913.563	9.91	
1916.339	6.26	
1919.114	3.61	
1921.886	9.24	
1924.657	5.27	
1927.426	4.27	
1930.193	7.92	
1932.957	8.25	
1935.72	6.26	
1938.481	6.26	
1941.24	7.59	
1943.998	6.26	
1946.753	11.23	
1949.506	8.91	
1952.258	8.25	
1955.007	11.23	
1957.755	7.92	
1960.501	8.91	
1963.245	5.6	
1965.986	7.59	
1968.726	4.27	
1971.465	8.25	
1974.201	5.93	
1976.935	7.92	
1979.668	7.25	
1982.398	3.28	
1985.127	7.92	
1987.854	6.26	
1990.579	6.92	
1993.302	6.92	
1996.023	8.25	
1998.742	8.91	
2001.46	7.92	
2004.175	3.28	
2006.889	6.92	
2009.6	4.93	
2012.31	4.93	
2015.018	3.94	
2017.725	7.25	
2020.429	8.58	
2023.131	8.58	
2025.832	6.59	
2028.531	2.28	
2031.228	6.59	
2033.923	6.59	
2036.616	8.25	
2039.307	6.26	
2041.997	9.24	
2044.684	1.62	
2047.37	7.25	
2050.054	6.92	
2052.736	6.92	
2055.416	4.6	
2058.095	9.91	
2060.771	7.25	
2063.446	1.62	
2066.119	2.61	
2068.79	3.61	
2071.459	5.93	
2074.127	6.26	
2076.792	3.94	
2079.456	6.59	
2082.118	5.93	
2084.778	4.6	
2087.436	3.94	
2090.093	6.92	
2092.747	5.6	
2095.4	1.62	
2098.051	5.6	
2100.7	3.61	
2103.348	3.94	
2105.993	3.61	
2108.637	6.92	
2111.279	7.25	
2113.919	3.61	
2116.558	7.25	
2119.194	7.92	
2121.829	5.93	
2124.462	3.61	
2127.093	7.25	
2129.723	5.26	
2132.35	3.94	
2134.976	4.27	
2137.6	5.93	
2140.223	3.61	
2142.843	6.26	
2145.462	2.94	
2148.079	3.61	
2150.694	6.59	
2153.307	7.25	
2155.919	3.28	
2158.528	3.94	
2161.137	1.29	
2163.743	8.25	
2166.347	2.94	
2168.95	6.59	
2171.551	0.62	
2174.15	4.27	
2176.748	0.62	
2179.343	4.27	
2181.937	6.59	
2184.529	2.61	
2187.12	1.62	
2189.708	6.92	
2192.295	3.94	
2194.88	5.93	
2197.464	1.95	
2200.045	5.93	
2202.625	4.6	
2205.203	4.27	
2207.78	4.6	
2210.355	2.94	
2212.928	3.94	
2215.499	5.6	
2218.068	2.94	
2220.636	2.61	
2223.202	0.95	
2225.766	2.94	
2228.329	6.26	
2230.889	2.61	
2233.449	1.62	
2236.006	5.26	
2238.562	3.61	
2241.115	1.95	
2243.668	4.6	
2246.218	7.59	
2248.767	5.26	
2251.314	1.62	
2253.859	3.61	
2256.403	2.61	
2258.945	5.6	
2261.485	2.61	
2264.023	3.28	
2266.56	3.61	
2269.095	8.25	
2271.629	4.6	
2274.16	4.6	
2276.69	4.93	
2279.219	1.29	
2281.745	4.27	
2284.27	-0.04	
2286.793	2.94	
2289.315	3.61	
2291.835	2.94	
2294.353	4.93	
2296.869	5.6	
2299.384	1.95	
2301.897	1.29	
2304.408	5.6	
2306.918	4.93	
2309.426	6.92	
2311.932	3.94	
2314.437	4.93	
2316.94	2.61	
2319.441	4.6	
2321.941	3.28	
2324.439	4.93	
2326.935	4.93	
2329.43	4.27	
2331.923	5.26	
2334.414	7.92	
2336.904	5.6	
2339.392	6.59	
2341.878	2.28	
2344.363	1.29	
2346.846	4.6	
2349.328	4.93	
2351.807	3.94	
2354.285	3.61	
2356.762	3.94	
2359.237	4.93	
2361.71	1.95	
2364.181	4.93	
2366.651	1.29	
2369.119	2.28	
2371.586	4.6	
2374.051	4.6	
2376.514	5.26	
2378.976	2.94	
2381.436	0.62	
2383.894	5.26	
2386.351	4.93	
2388.806	5.6	
2391.259	5.6	
2393.711	4.6	
2396.161	3.61	
2398.61	1.95	
2401.057	3.61	
2403.502	4.6	
2405.946	3.94	
2408.388	2.61	
2410.829	5.26	
2413.268	4.27	
2415.705	6.59	
2418.141	2.94	
2420.575	1.62	
2423.007	3.28	
2425.438	6.26	
2427.867	8.91	
2430.295	2.94	
2432.721	4.27	
2435.145	2.94	
2437.568	3.94	
2439.989	4.93	
2442.409	6.92	
2444.827	4.93	
2447.243	3.28	
2449.658	6.26	
2452.071	3.94	
2454.483	1.62	
2456.893	6.26	
2459.302	5.26	
2461.709	3.61	
2464.114	6.92	
2466.518	2.94	
2468.92	5.6	
2471.32	3.28	
2473.719	5.6	
2476.117	3.28	
2478.512	5.6	
2480.907	3.61	
2483.299	2.94	
2485.691	1.95	
2488.08	3.61	
2490.468	4.6	
2492.854	6.92	
2495.239	6.92	
2497.623	5.6	
2500.004	3.28	
2502.384	6.59	
2504.763	8.25	
2507.14	2.61	
2509.515	6.92	
2511.889	4.6	
2514.262	5.6	
2516.633	3.61	
2519.002	2.61	
2521.369	3.61	
2523.736	3.94	
2526.1	3.28	
2528.463	4.27	
2530.825	8.25	
2533.185	5.6	
2535.543	3.28	
2537.9	5.93	
2540.255	3.61	
2542.609	3.94	
2544.961	0.95	
2547.312	3.28	
2549.661	3.94	
2552.009	4.6	
2554.355	3.94	
2556.7	3.94	
2559.043	6.92	
2561.384	5.6	
2563.724	1.62	
2566.063	5.6	
2568.4	5.26	
2570.735	4.93	
2573.069	4.27	
2575.402	5.26	
2577.733	4.27	
2580.062	5.93	
2582.39	4.27	
2584.716	4.6	
2587.041	5.6	
2589.364	6.92	
2591.686	8.25	
2594.006	2.61	
2596.325	5.93	
2598.643	6.59	
2600.958	3.94	
2603.273	7.25	
2605.585	2.94	
2607.897	8.58	
2610.206	7.92	
2612.515	1.62	
2614.822	5.6	
2617.127	6.26	
2619.431	6.59	
2621.733	5.26	
2624.034	5.93	
2626.333	2.28	
2628.631	5.93	
2630.927	5.6	
2633.222	4.6	
2635.515	6.26	
2637.807	6.92	
2640.098	5.26	
2642.387	6.26	
2644.674	5.6	
2646.96	7.59	
2649.245	10.24	
2651.528	6.26	
2653.809	4.93	
2656.089	4.6	
2658.368	3.61	
2660.645	8.58	
2662.921	4.27	
2665.195	9.58	
2667.468	7.25	
2669.739	8.58	
2672.009	5.26	
2674.277	6.92	
2676.544	6.26	
2678.809	5.26	
2681.073	10.24	
2683.336	8.58	
2685.597	8.25	
2687.856	6.26	
2690.115	12.23	
2692.371	11.23	
2694.626	11.57	
2696.88	7.92	
2699.133	8.91	
2701.383	13.22	
2703.633	13.56	
2705.881	10.9	
2708.127	8.91	
2710.373	13.56	
2712.616	10.24	
2714.859	10.57	
2717.099	13.89	
2719.339	10.57	
2721.577	12.23	
2723.813	14.88	
2726.048	14.55	
2728.282	13.56	
2730.514	12.56	
2732.745	13.22	
2734.974	10.57	
2737.202	14.88	
2739.428	11.9	
2741.653	8.91	
2743.877	11.57	
2746.099	14.22	
2748.32	12.56	
2750.539	11.23	
2752.757	11.9	
2754.974	11.57	
2757.189	14.88	
2759.403	13.89	
2761.615	14.22	
2763.826	12.56	
2766.035	15.55	
2768.243	12.56	
2770.45	11.23	
2772.655	8.58	
2774.859	13.89	
2777.062	10.57	
2779.263	15.21	
2781.462	10.9	
2783.66	15.55	
2785.857	18.2	
2788.053	16.87	
2790.247	15.21	
2792.439	12.89	
2794.631	15.55	
2796.82	17.54	
2799.009	17.54	
2801.196	17.2	
2803.382	15.55	
2805.566	17.54	
2807.749	18.53	
2809.93	23.17	
2812.11	19.19	
2814.289	19.19	
2816.466	20.85	
2818.642	20.19	
2820.817	22.51	
2822.99	24.83	
2825.162	22.84	
2827.332	23.51	
2829.502	27.82	
2831.669	25.83	
2833.836	26.82	
2836	29.14	
2838.164	29.48	
2840.326	36.77	
2842.487	32.79	
2844.647	35.45	
2846.805	36.77	
2848.961	36.11	
2851.117	44.07	
2853.271	37.77	
2855.423	39.76	
2857.575	41.08	
2859.725	46.39	
2861.873	47.05	
2864.02	52.69	
2866.166	56.01	
2868.311	57	
2870.454	60.65	
2872.596	58.99	
2874.736	56.67	
2876.875	61.98	
2879.013	67.62	
2881.149	64.96	
2883.284	71.26	
2885.418	71.6	
2887.551	66.95	
2889.682	73.25	
2891.811	71.93	
2893.94	67.62	
2896.067	72.59	
2898.192	71.6	
2900.317	66.29	
2902.439	71.93	
2904.561	68.28	
2906.681	70.27	
2908.8	68.61	
2910.918	73.59	
2913.034	70.27	
2915.149	74.25	
2917.263	79.22	
2919.375	84.2	
2921.486	82.87	
2923.596	88.84	
2925.704	92.16	
2927.811	95.14	
2929.917	98.79	
2932.021	105.76	
2934.124	116.37	
2936.226	119.36	
2938.327	117.7	
2940.426	120.68	
2942.524	113.39	
2944.62	111.73	
2946.715	107.75	
2948.809	98.13	
2950.902	95.81	
2952.993	86.85	
2955.083	83.2	
2957.171	79.22	
2959.259	68.28	
2961.345	67.95	
2963.429	64.3	
2965.513	66.95	
2967.595	60.32	
2969.676	54.35	
2971.755	53.69	
2973.833	47.72	
2975.91	45.06	
2977.986	42.08	
2980.06	35.45	
2982.133	39.09	
2984.205	36.77	
2986.275	33.12	
2988.345	36.77	
2990.412	31.13	
2992.479	28.48	
2994.544	25.83	
2996.608	26.49	
2998.671	26.16	
3000.732	21.85	
3002.792	26.49	
3004.851	20.85	
3006.909	20.52	
3008.965	22.18	
3011.02	24.5	
3013.074	20.19	
3015.126	17.2	
3017.177	15.55	
3019.227	20.85	
3021.276	16.87	
3023.323	18.86	
3025.369	14.88	
3027.414	12.23	
3029.458	14.55	
3031.5	14.22	
3033.541	9.91	
3035.581	13.89	
3037.619	8.58	
3039.656	12.89	
3041.692	8.91	
3043.727	8.91	
3045.76	7.92	
3047.793	7.25	
3049.824	10.9	
3051.853	1.62	
3053.882	1.29	
3055.909	1.29	
