RamanShift:204		
0.351	1022.45	
4.587	136.61	
8.82	37.44	
13.049	21.18	
17.275	16.21	
21.497	11.23	
25.716	2.94	
29.931	3.28	
34.142	5.27	
38.351	2.94	
42.555	1.95	
46.756	4.93	
50.954	1.62	
55.148	-0.04	
59.339	1.29	
63.527	-0.04	
67.71	3.94	
71.891	-0.04	
76.068	0.62	
80.241	5.6	
84.411	6.26	
88.578	5.6	
92.741	7.59	
96.901	7.25	
101.057	9.58	
105.21	10.57	
109.359	15.55	
113.505	13.56	
117.648	15.21	
121.787	18.86	
125.923	19.19	
130.055	23.51	
134.184	23.84	
138.31	29.48	
142.432	29.81	
146.551	30.8	
150.667	32.79	
154.779	37.1	
158.887	40.75	
162.993	47.05	
167.095	47.05	
171.193	47.05	
175.289	50.7	
179.381	54.68	
183.469	50.7	
187.554	52.36	
191.636	60.65	
195.715	54.02	
199.79	54.35	
203.862	55.01	
207.931	55.35	
211.996	57	
216.058	52.69	
220.116	53.69	
224.172	57	
228.224	59.33	
232.272	55.35	
236.318	56.01	
240.36	57	
244.399	56.67	
248.434	58.66	
252.466	65.3	
256.495	60.65	
260.521	58.66	
264.544	58.66	
268.563	63.31	
272.579	66.95	
276.591	65.63	
280.601	64.63	
284.607	65.96	
288.61	63.97	
292.609	63.64	
296.606	62.64	
300.599	64.3	
304.589	64.63	
308.575	60.65	
312.559	58	
316.539	60.65	
320.516	54.02	
324.49	56.01	
328.461	48.38	
332.428	50.7	
336.392	47.05	
340.353	50.7	
344.311	49.04	
348.266	50.04	
352.217	44.07	
356.165	39.09	
360.11	40.42	
364.052	34.45	
367.991	34.12	
371.926	32.46	
375.859	35.78	
379.788	34.45	
383.714	36.44	
387.637	33.12	
391.557	31.47	
395.473	31.8	
399.387	32.79	
403.297	29.81	
407.204	30.8	
411.108	26.49	
415.009	27.82	
418.907	32.79	
422.802	28.48	
426.693	31.47	
430.581	39.43	
434.467	38.43	
438.349	48.05	
442.228	57.67	
446.104	51.03	
449.977	48.38	
453.847	42.08	
457.713	38.76	
461.577	29.48	
465.438	29.14	
469.295	28.15	
473.149	27.82	
477.001	24.83	
480.849	25.5	
484.694	25.5	
488.536	27.49	
492.375	27.82	
496.211	31.47	
500.044	30.47	
503.874	30.14	
507.701	33.46	
511.525	36.44	
515.346	37.1	
519.163	35.45	
522.978	39.76	
526.79	38.76	
530.598	39.09	
534.404	36.11	
538.207	35.78	
542.006	37.44	
545.803	36.11	
549.596	35.45	
553.387	39.76	
557.175	37.77	
560.959	34.45	
564.741	35.45	
568.519	36.11	
572.295	36.11	
576.068	37.77	
579.837	45.73	
583.604	50.37	
587.368	51.03	
591.128	60.98	
594.886	68.61	
598.641	69.28	
602.393	79.89	
606.142	74.25	
609.887	78.23	
613.63	74.25	
617.37	68.61	
621.108	61.98	
624.842	45.73	
628.573	38.43	
632.301	30.8	
636.027	24.17	
639.749	27.49	
643.468	16.21	
647.185	19.86	
650.899	21.18	
654.609	13.89	
658.317	17.87	
662.022	15.55	
665.724	17.87	
669.423	15.88	
673.119	20.52	
676.813	13.89	
680.503	11.9	
684.191	11.57	
687.875	14.88	
691.557	13.89	
695.236	9.91	
698.912	16.21	
702.585	12.89	
706.256	9.58	
709.923	12.56	
713.588	14.55	
717.249	13.89	
720.908	14.55	
724.564	14.55	
728.217	14.22	
731.868	16.54	
735.515	14.55	
739.16	13.89	
742.801	16.21	
746.44	20.52	
750.076	16.21	
753.71	20.52	
757.34	23.17	
760.968	22.84	
764.593	25.5	
768.215	27.82	
771.834	30.47	
775.45	35.11	
779.064	41.08	
782.675	50.37	
786.283	63.64	
789.888	67.29	
793.49	75.24	
797.09	80.22	
800.686	88.18	
804.281	90.17	
807.872	88.51	
811.46	92.16	
815.046	90.5	
818.629	101.11	
822.209	103.44	
825.786	99.79	
829.361	105.09	
832.933	104.1	
836.502	102.44	
840.068	97.13	
843.632	94.48	
847.193	94.81	
850.751	101.11	
854.306	113.39	
857.859	144.23	
861.409	192.66	
864.956	235.77	
868.5	267.28	
872.042	287.19	
875.581	290.5	
879.117	294.81	
882.651	302.44	
886.182	300.12	
889.71	264.63	
893.235	209.57	
896.758	149.87	
900.278	106.09	
903.795	80.22	
907.31	65.3	
910.822	59.33	
914.331	48.05	
917.838	45.06	
921.341	45.06	
924.843	45.73	
928.341	36.44	
931.837	39.43	
935.33	37.44	
938.821	34.78	
942.308	31.47	
945.793	26.16	
949.276	21.85	
952.756	24.17	
956.233	26.82	
959.707	30.14	
963.179	25.5	
966.649	28.15	
970.115	23.51	
973.579	29.81	
977.04	28.48	
980.499	27.49	
983.955	35.11	
987.408	35.45	
990.859	39.09	
994.307	40.42	
997.753	43.41	
1001.196	50.04	
1004.636	52.69	
1008.074	54.02	
1011.509	54.02	
1014.941	59.33	
1018.371	59.66	
1021.798	60.32	
1025.223	62.97	
1028.645	63.64	
1032.064	65.3	
1035.481	66.95	
1038.896	69.94	
1042.307	72.26	
1045.716	76.9	
1049.123	79.23	
1052.527	87.85	
1055.928	77.9	
1059.327	82.54	
1062.723	80.22	
1066.117	77.57	
1069.508	73.92	
1072.897	72.59	
1076.283	68.94	
1079.666	64.96	
1083.047	67.95	
1086.425	62.64	
1089.801	62.31	
1093.174	63.64	
1096.545	55.01	
1099.913	62.64	
1103.279	66.95	
1106.642	70.27	
1110.002	68.28	
1113.36	66.95	
1116.716	75.25	
1120.069	77.57	
1123.419	78.89	
1126.767	77.9	
1130.113	76.9	
1133.456	76.57	
1136.796	68.28	
1140.134	62.64	
1143.47	59.99	
1146.802	51.37	
1150.133	41.08	
1153.461	38.76	
1156.786	33.79	
1160.109	33.79	
1163.43	31.13	
1166.748	31.8	
1170.063	31.47	
1173.376	37.44	
1176.687	29.14	
1179.995	32.13	
1183.3	35.11	
1186.603	37.1	
1189.904	35.11	
1193.202	33.79	
1196.498	38.43	
1199.791	39.43	
1203.082	42.08	
1206.37	45.73	
1209.656	50.37	
1212.94	44.73	
1216.221	53.69	
1219.499	58.99	
1222.775	61.32	
1226.049	67.62	
1229.32	69.94	
1232.589	76.57	
1235.856	83.54	
1239.12	84.2	
1242.381	88.18	
1245.64	87.19	
1248.897	83.21	
1252.151	83.87	
1255.403	83.21	
1258.652	83.87	
1261.9	92.49	
1265.144	92.82	
1268.386	104.43	
1271.626	112.72	
1274.864	126.65	
1278.099	127.65	
1281.331	123.34	
1284.562	114.05	
1287.789	115.05	
1291.015	109.08	
1294.238	108.41	
1297.459	103.44	
1300.677	100.78	
1303.893	89.18	
1307.106	81.88	
1310.318	77.24	
1313.526	76.9	
1316.733	76.24	
1319.937	74.25	
1323.139	74.25	
1326.338	72.92	
1329.535	75.91	
1332.73	75.91	
1335.922	81.88	
1339.112	80.55	
1342.3	82.87	
1345.485	82.54	
1348.668	86.19	
1351.848	94.81	
1355.027	87.52	
1358.203	88.51	
1361.376	87.52	
1364.547	92.16	
1367.716	89.18	
1370.883	84.53	
1374.047	86.19	
1377.209	84.86	
1380.369	91.83	
1383.526	92.16	
1386.681	92.49	
1389.834	90.17	
1392.984	96.8	
1396.132	92.49	
1399.278	94.15	
1402.421	96.47	
1405.562	101.78	
1408.701	94.15	
1411.838	104.76	
1414.972	97.8	
1418.104	111.73	
1421.234	109.41	
1424.361	123.34	
1427.486	119.03	
1430.609	123.67	
1433.73	132.29	
1436.848	135.28	
1439.964	144.23	
1443.078	150.87	
1446.189	151.2	
1449.299	156.51	
1452.405	151.2	
1455.51	155.84	
1458.613	152.86	
1461.713	157.83	
1464.811	154.18	
1467.906	151.86	
1471	147.22	
1474.091	125	
1477.18	114.05	
1480.267	95.15	
1483.351	78.89	
1486.433	77.57	
1489.513	66.95	
1492.591	62.64	
1495.666	58.66	
1498.74	60.32	
1501.811	50.37	
1504.879	53.69	
1507.946	51.03	
1511.01	52.69	
1514.073	49.38	
1517.132	50.37	
1520.19	47.39	
1523.246	51.03	
1526.299	44.73	
1529.35	45.73	
1532.399	41.08	
1535.446	45.73	
1538.49	46.72	
1541.532	42.41	
1544.572	40.75	
1547.61	41.08	
1550.646	40.09	
1553.68	35.45	
1556.711	42.74	
1559.74	44.4	
1562.767	38.76	
1565.792	38.43	
1568.814	38.76	
1571.835	38.1	
1574.853	40.09	
1577.869	35.11	
1580.883	39.09	
1583.895	34.78	
1586.904	34.12	
1589.912	35.11	
1592.917	38.1	
1595.92	32.79	
1598.921	36.11	
1601.92	41.75	
1604.917	36.44	
1607.911	32.79	
1610.903	34.45	
1613.894	36.77	
1616.882	36.44	
1619.868	31.47	
1622.851	34.12	
1625.833	34.45	
1628.812	36.11	
1631.79	36.77	
1634.765	42.74	
1637.738	32.13	
1640.709	41.08	
1643.678	38.43	
1646.645	42.41	
1649.609	40.75	
1652.572	46.39	
1655.532	41.42	
1658.49	46.72	
1661.447	52.69	
1664.401	49.38	
1667.353	44.73	
1670.302	44.4	
1673.25	52.36	
1676.196	49.38	
1679.139	51.03	
1682.081	54.68	
1685.02	61.32	
1687.957	53.36	
1690.893	54.68	
1693.826	56.67	
1696.757	58.33	
1699.686	63.31	
1702.612	53.36	
1705.537	57	
1708.46	64.63	
1711.38	57	
1714.299	54.68	
1717.215	53.36	
1720.13	56.01	
1723.042	56.34	
1725.952	51.37	
1728.86	47.72	
1731.767	37.77	
1734.671	40.75	
1737.573	40.75	
1740.473	40.75	
1743.37	42.08	
1746.266	39.43	
1749.16	39.43	
1752.052	43.07	
1754.942	37.77	
1757.829	37.1	
1760.715	34.12	
1763.598	33.46	
1766.48	27.49	
1769.36	21.52	
1772.237	25.16	
1775.112	25.83	
1777.986	25.16	
1780.857	25.5	
1783.727	25.5	
1786.594	23.17	
1789.459	25.16	
1792.323	27.15	
1795.184	24.83	
1798.043	19.53	
1800.9	17.2	
1803.756	21.18	
1806.609	21.52	
1809.46	23.17	
1812.309	20.85	
1815.157	20.19	
1818.002	18.86	
1820.845	23.17	
1823.686	20.52	
1826.526	16.87	
1829.363	22.18	
1832.198	17.2	
1835.031	21.18	
1837.863	22.18	
1840.692	20.85	
1843.519	20.52	
1846.345	19.86	
1849.168	18.2	
1851.989	17.2	
1854.809	16.21	
1857.626	18.86	
1860.441	19.19	
1863.255	19.19	
1866.066	17.87	
1868.876	18.2	
1871.684	18.53	
1874.489	19.53	
1877.293	17.54	
1880.095	15.21	
1882.894	17.2	
1885.692	15.55	
1888.488	19.53	
1891.282	19.19	
1894.074	18.53	
1896.864	13.89	
1899.652	18.2	
1902.438	17.2	
1905.222	13.56	
1908.004	14.55	
1910.785	20.19	
1913.563	19.86	
1916.339	11.9	
1919.114	14.55	
1921.886	15.88	
1924.657	14.88	
1927.426	15.21	
1930.193	15.55	
1932.957	17.87	
1935.72	14.22	
1938.481	12.89	
1941.24	14.22	
1943.998	14.22	
1946.753	14.88	
1949.506	11.9	
1952.258	15.21	
1955.007	15.55	
1957.755	10.57	
1960.501	16.54	
1963.245	14.22	
1965.986	12.56	
1968.726	9.91	
1971.465	11.9	
1974.201	8.25	
1976.935	11.9	
1979.668	11.57	
1982.398	7.92	
1985.127	17.54	
1987.854	11.9	
1990.579	10.57	
1993.302	10.24	
1996.023	12.23	
1998.742	12.89	
2001.46	9.91	
2004.175	8.25	
2006.889	12.89	
2009.6	8.91	
2012.31	13.89	
2015.018	9.58	
2017.725	10.57	
2020.429	13.89	
2023.131	12.56	
2025.832	9.58	
2028.531	7.25	
2031.228	9.58	
2033.923	11.23	
2036.616	10.9	
2039.307	12.89	
2041.997	11.9	
2044.684	5.93	
2047.37	10.9	
2050.054	12.23	
2052.736	9.58	
2055.416	8.58	
2058.095	11.57	
2060.771	8.91	
2063.446	5.6	
2066.119	6.92	
2068.79	6.26	
2071.459	6.92	
2074.127	11.9	
2076.792	8.25	
2079.456	8.91	
2082.118	9.24	
2084.778	9.24	
2087.436	7.92	
2090.093	8.25	
2092.747	4.93	
2095.4	7.59	
2098.051	11.23	
2100.7	9.58	
2103.348	7.25	
2105.993	7.92	
2108.637	10.57	
2111.279	9.58	
2113.919	6.92	
2116.558	10.57	
2119.194	6.26	
2121.829	5.6	
2124.462	5.93	
2127.093	8.91	
2129.723	7.25	
2132.35	7.59	
2134.976	7.92	
2137.6	10.24	
2140.223	5.6	
2142.843	7.25	
2145.462	7.59	
2148.079	10.57	
2150.694	7.25	
2153.307	10.57	
2155.919	9.24	
2158.528	6.92	
2161.137	7.25	
2163.743	7.25	
2166.347	6.59	
2168.95	9.58	
2171.551	4.6	
2174.15	5.6	
2176.748	2.61	
2179.343	8.25	
2181.937	6.26	
2184.529	4.6	
2187.12	6.26	
2189.708	8.58	
2192.295	5.26	
2194.88	5.93	
2197.464	6.59	
2200.045	9.91	
2202.625	7.59	
2205.203	4.93	
2207.78	4.6	
2210.355	4.27	
2212.928	7.59	
2215.499	7.25	
2218.068	3.61	
2220.636	7.92	
2223.202	7.25	
2225.766	5.6	
2228.329	6.59	
2230.889	7.59	
2233.449	3.61	
2236.006	6.59	
2238.562	8.91	
2241.115	6.59	
2243.668	5.93	
2246.218	8.58	
2248.767	10.9	
2251.314	3.94	
2253.859	7.59	
2256.403	5.6	
2258.945	9.24	
2261.485	5.26	
2264.023	7.92	
2266.56	5.6	
2269.095	7.92	
2271.629	3.94	
2274.16	8.58	
2276.69	5.26	
2279.219	3.61	
2281.745	8.25	
2284.27	1.62	
2286.793	5.26	
2289.315	4.6	
2291.835	7.92	
2294.353	6.92	
2296.869	4.27	
2299.384	5.6	
2301.897	7.25	
2304.408	9.91	
2306.918	6.59	
2309.426	7.25	
2311.932	4.93	
2314.437	8.58	
2316.94	2.61	
2319.441	7.59	
2321.941	5.6	
2324.439	7.92	
2326.935	5.26	
2329.43	6.59	
2331.923	6.59	
2334.414	11.23	
2336.904	6.59	
2339.392	9.91	
2341.878	5.26	
2344.363	5.6	
2346.846	7.25	
2349.328	5.6	
2351.807	8.91	
2354.285	9.24	
2356.762	4.6	
2359.237	2.94	
2361.71	0.62	
2364.181	7.59	
2366.651	7.92	
2369.119	5.6	
2371.586	6.26	
2374.051	4.27	
2376.514	7.25	
2378.976	6.59	
2381.436	7.25	
2383.894	8.91	
2386.351	7.92	
2388.806	10.24	
2391.259	5.6	
2393.711	2.28	
2396.161	6.26	
2398.61	4.93	
2401.057	6.92	
2403.502	6.59	
2405.946	6.26	
2408.388	4.6	
2410.829	7.25	
2413.268	6.92	
2415.705	8.58	
2418.141	5.93	
2420.575	3.28	
2423.007	5.93	
2425.438	7.92	
2427.867	10.57	
2430.295	3.94	
2432.721	6.59	
2435.145	5.93	
2437.568	6.59	
2439.989	7.25	
2442.409	7.59	
2444.827	8.25	
2447.243	5.6	
2449.658	5.93	
2452.071	4.6	
2454.483	5.6	
2456.893	8.58	
2459.302	6.26	
2461.709	4.27	
2464.114	8.25	
2466.518	2.94	
2468.92	5.93	
2471.32	7.92	
2473.719	8.91	
2476.117	6.92	
2478.512	4.6	
2480.907	4.27	
2483.299	5.6	
2485.691	5.93	
2488.08	6.92	
2490.468	4.6	
2492.854	7.25	
2495.239	7.59	
2497.623	7.25	
2500.004	7.59	
2502.384	7.59	
2504.763	8.91	
2507.14	4.93	
2509.515	6.92	
2511.889	7.92	
2514.262	5.93	
2516.633	6.92	
2519.002	6.59	
2521.369	6.92	
2523.736	9.24	
2526.1	3.61	
2528.463	6.92	
2530.825	10.57	
2533.185	10.24	
2535.543	6.59	
2537.9	7.25	
2540.255	8.91	
2542.609	8.91	
2544.961	6.26	
2547.312	5.26	
2549.661	3.94	
2552.009	8.25	
2554.355	6.26	
2556.7	8.91	
2559.043	12.23	
2561.384	4.27	
2563.724	5.26	
2566.063	9.24	
2568.4	7.59	
2570.735	7.92	
2573.069	10.9	
2575.402	8.58	
2577.733	6.26	
2580.062	8.25	
2582.39	4.6	
2584.716	6.92	
2587.041	8.25	
2589.364	7.59	
2591.686	10.57	
2594.006	8.25	
2596.325	9.91	
2598.643	8.58	
2600.958	6.26	
2603.273	12.89	
2605.585	7.59	
2607.897	10.9	
2610.206	7.25	
2612.515	9.91	
2614.822	4.93	
2617.127	10.24	
2619.431	8.25	
2621.733	9.58	
2624.034	10.9	
2626.333	7.25	
2628.631	5.93	
2630.927	5.93	
2633.222	9.24	
2635.515	8.25	
2637.807	8.91	
2640.098	8.91	
2642.387	10.24	
2644.674	5.93	
2646.96	12.23	
2649.245	11.23	
2651.528	6.59	
2653.809	4.27	
2656.089	4.93	
2658.368	4.27	
2660.645	10.9	
2662.921	8.25	
2665.195	9.24	
2667.468	6.59	
2669.739	14.55	
2672.009	11.9	
2674.277	8.58	
2676.544	11.57	
2678.809	9.58	
2681.073	13.22	
2683.336	11.9	
2685.597	12.56	
2687.856	10.57	
2690.115	16.54	
2692.371	14.22	
2694.626	14.88	
2696.88	13.56	
2699.133	11.9	
2701.383	15.55	
2703.633	17.87	
2705.881	13.56	
2708.127	14.55	
2710.373	15.55	
2712.616	11.23	
2714.859	13.22	
2717.099	13.89	
2719.339	14.88	
2721.577	13.89	
2723.813	15.21	
2726.048	17.54	
2728.282	15.88	
2730.514	15.55	
2732.745	13.89	
2734.974	16.54	
2737.202	17.54	
2739.428	15.21	
2741.653	17.54	
2743.877	16.54	
2746.099	16.54	
2748.32	13.89	
2750.539	15.88	
2752.757	14.55	
2754.974	19.19	
2757.189	18.86	
2759.403	21.18	
2761.615	18.53	
2763.826	18.86	
2766.035	18.86	
2768.243	16.54	
2770.45	19.86	
2772.655	20.52	
2774.859	20.19	
2777.062	18.86	
2779.263	20.52	
2781.462	20.85	
2783.66	25.5	
2785.857	24.5	
2788.053	27.82	
2790.247	23.51	
2792.439	24.17	
2794.631	26.82	
2796.82	29.48	
2799.009	26.82	
2801.196	29.14	
2803.382	28.15	
2805.566	26.49	
2807.749	29.48	
2809.93	33.46	
2812.11	31.13	
2814.289	32.13	
2816.466	31.8	
2818.642	35.45	
2820.817	35.11	
2822.99	32.13	
2825.162	39.76	
2827.332	41.08	
2829.502	35.45	
2831.669	42.74	
2833.836	44.4	
2836	44.73	
2838.164	43.07	
2840.326	49.04	
2842.487	45.73	
2844.647	49.38	
2846.805	52.03	
2848.961	53.69	
2851.117	55.01	
2853.271	55.35	
2855.423	59.32	
2857.575	60.65	
2859.725	62.64	
2861.873	64.3	
2864.02	67.28	
2866.166	73.59	
2868.311	74.58	
2870.454	80.55	
2872.596	75.58	
2874.736	84.2	
2876.875	76.24	
2879.013	75.58	
2881.149	81.55	
2883.284	85.86	
2885.418	77.9	
2887.551	84.2	
2889.682	82.21	
2891.811	84.53	
2893.94	79.56	
2896.067	83.87	
2898.192	79.89	
2900.317	82.21	
2902.439	80.22	
2904.561	83.54	
2906.681	82.21	
2908.8	80.55	
2910.918	81.55	
2913.034	83.2	
2915.149	86.85	
2917.263	87.18	
2919.375	87.52	
2921.486	85.19	
2923.596	94.15	
2925.704	97.13	
2927.811	98.46	
2929.917	102.77	
2932.021	109.41	
2934.124	111.73	
2936.226	115.04	
2938.327	114.05	
2940.426	112.06	
2942.524	107.08	
2944.62	106.75	
2946.715	103.77	
2948.809	97.13	
2950.902	85.86	
2952.993	84.53	
2955.083	78.56	
2957.171	71.93	
2959.259	67.62	
2961.345	69.94	
2963.429	58.99	
2965.513	60.65	
2967.595	54.02	
2969.676	52.36	
2971.755	51.37	
2973.833	48.71	
2975.91	46.39	
2977.986	46.72	
2980.06	39.43	
2982.133	40.75	
2984.205	38.76	
2986.275	32.46	
2988.345	38.43	
2990.412	35.78	
2992.479	25.16	
2994.544	27.15	
2996.608	26.82	
2998.671	27.82	
3000.732	24.83	
3002.792	25.83	
3004.851	24.83	
3006.909	23.51	
3008.965	23.84	
3011.02	21.52	
3013.074	19.53	
3015.126	17.2	
3017.177	16.21	
3019.227	18.2	
3021.276	15.88	
3023.323	16.21	
3025.369	13.56	
3027.414	14.22	
3029.458	15.21	
3031.5	16.21	
3033.541	12.56	
3035.581	12.23	
3037.619	8.58	
3039.656	12.89	
3041.692	12.89	
3043.727	10.9	
3045.76	11.23	
3047.793	7.92	
3049.824	11.57	
3051.853	-0.37	
3053.882	-0.37	
3055.909	0.95	
