RamanShift:204		
0.351	-552.61	
4.587	-94.32	
8.82	-41.91	
13.049	-26.99	
17.275	-19.69	
21.497	-20.69	
25.716	-7.09	
29.931	-8.42	
34.142	-10.41	
38.351	-6.09	
42.555	-6.43	
46.756	-7.42	
50.954	-5.1	
55.148	-0.46	
59.339	-4.77	
63.527	-6.76	
67.71	-2.78	
71.891	-2.11	
76.068	-0.79	
80.241	-2.45	
84.411	1.87	
88.578	2.86	
92.741	5.18	
96.901	4.85	
101.057	4.85	
105.21	5.85	
109.359	7.17	
113.505	8.5	
117.648	13.81	
121.787	10.16	
125.923	15.46	
130.055	13.14	
134.184	20.44	
138.31	22.43	
142.432	27.07	
146.551	23.75	
150.667	29.72	
154.779	34.04	
158.887	35.36	
162.993	37.02	
167.095	42	
171.193	41	
175.289	46.97	
179.381	51.95	
183.469	52.94	
187.554	52.61	
191.636	53.6	
195.715	54.93	
199.79	50.95	
203.862	56.92	
207.931	58.58	
211.996	57.58	
216.058	60.9	
220.116	68.86	
224.172	59.91	
228.224	56.26	
232.272	66.21	
236.318	65.21	
240.36	68.86	
244.399	66.87	
248.434	65.54	
252.466	69.86	
256.495	71.85	
260.521	75.49	
264.544	75.49	
268.563	83.12	
272.579	73.5	
276.591	78.48	
280.601	79.14	
284.607	74.83	
288.61	81.13	
292.609	79.81	
296.606	74.5	
300.599	77.15	
304.589	80.47	
308.575	78.81	
312.559	69.52	
316.539	74.17	
320.516	65.21	
324.49	74.17	
328.461	63.55	
332.428	64.55	
336.392	63.22	
340.353	60.57	
344.311	59.91	
348.266	59.57	
352.217	57.25	
356.165	50.29	
360.11	47.97	
364.052	48.63	
367.991	42.66	
371.926	41	
375.859	37.35	
379.788	42	
383.714	34.7	
387.637	44.32	
391.557	37.68	
395.473	43.32	
399.387	41	
403.297	36.03	
407.204	35.36	
411.108	35.36	
415.009	35.03	
418.907	30.72	
422.802	31.38	
426.693	32.38	
430.581	32.38	
434.467	40.34	
438.349	39.67	
442.228	46.97	
446.104	45.31	
449.977	48.63	
453.847	34.04	
457.713	35.03	
461.577	28.4	
465.438	26.41	
469.295	26.74	
473.149	27.07	
477.001	27.73	
480.849	25.08	
484.694	31.05	
488.536	28.4	
492.375	22.76	
496.211	30.39	
500.044	29.72	
503.874	34.04	
507.701	40.01	
511.525	36.36	
515.346	40.01	
519.163	41	
522.978	42.66	
526.79	41.66	
530.598	39.01	
534.404	39.67	
538.207	39.67	
542.006	42	
545.803	40.01	
549.596	32.05	
553.387	39.34	
557.175	41.33	
560.959	38.35	
564.741	32.38	
568.519	35.36	
572.295	34.37	
576.068	30.39	
579.837	35.03	
583.604	39.67	
587.368	42.99	
591.128	47.63	
594.886	49.96	
598.641	53.27	
602.393	52.94	
606.142	56.92	
609.887	59.91	
613.63	45.31	
617.37	43.65	
621.108	33.7	
624.842	26.08	
628.573	21.77	
632.301	24.42	
636.027	20.11	
639.749	13.47	
643.468	18.78	
647.185	21.43	
650.899	13.81	
654.609	11.82	
658.317	13.47	
662.022	10.49	
665.724	12.48	
669.423	14.47	
673.119	6.51	
676.813	16.46	
680.503	15.8	
684.191	12.48	
687.875	12.48	
691.557	10.16	
695.236	16.79	
698.912	8.5	
702.585	17.12	
706.256	19.78	
709.923	13.81	
713.588	10.16	
717.249	14.14	
720.908	17.12	
724.564	13.14	
728.217	12.81	
731.868	14.47	
735.515	14.8	
739.16	14.14	
742.801	18.12	
746.44	17.45	
750.076	16.79	
753.71	22.76	
757.34	20.44	
760.968	18.12	
764.593	24.42	
768.215	26.08	
771.834	33.04	
775.45	37.68	
779.064	41.66	
782.675	57.92	
786.283	67.53	
789.888	84.45	
793.49	92.41	
797.09	104.02	
800.686	105.01	
804.281	113.3	
807.872	116.95	
811.46	110.32	
815.046	109.32	
818.629	122.26	
822.209	118.61	
825.786	125.24	
829.361	123.92	
832.933	113.64	
836.502	106.67	
840.068	107.33	
843.632	100.7	
847.193	92.41	
850.751	99.04	
854.306	107.33	
857.859	132.21	
861.409	172.34	
864.956	204.85	
868.5	236.03	
872.042	255.59	
875.581	257.92	
879.117	253.27	
882.651	241	
886.182	218.45	
889.71	180.97	
893.235	142.82	
896.758	102.36	
900.278	87.1	
903.795	70.85	
907.31	68.53	
910.822	56.59	
914.331	52.94	
917.838	51.61	
921.341	46.97	
924.843	47.97	
928.341	42.66	
931.837	42	
935.33	38.35	
938.821	34.04	
942.308	31.38	
945.793	31.71	
949.276	30.72	
952.756	29.39	
956.233	21.43	
959.707	26.08	
963.179	30.39	
966.649	25.41	
970.115	26.08	
973.579	29.39	
977.04	30.39	
980.499	37.68	
983.955	33.37	
987.408	40.67	
990.859	38.68	
994.307	42	
997.753	48.3	
1001.196	46.97	
1004.636	57.25	
1008.074	49.96	
1011.509	57.25	
1014.941	58.91	
1018.371	70.19	
1021.798	70.19	
1025.223	76.49	
1028.645	72.18	
1032.064	79.47	
1035.481	82.79	
1038.896	85.11	
1042.307	85.44	
1045.716	94.07	
1049.123	91.75	
1052.527	96.72	
1055.928	98.71	
1059.327	101.36	
1062.723	98.05	
1066.117	94.4	
1069.508	93.4	
1072.897	87.43	
1076.283	84.12	
1079.666	84.78	
1083.047	84.45	
1086.425	82.13	
1089.801	75.16	
1093.174	76.16	
1096.545	80.47	
1099.913	78.15	
1103.279	83.79	
1106.642	78.15	
1110.002	85.11	
1113.36	95.39	
1116.716	89.09	
1120.069	100.7	
1123.419	94.73	
1126.767	100.37	
1130.113	91.41	
1133.456	95.06	
1136.796	81.13	
1140.134	80.14	
1143.47	70.19	
1146.802	56.92	
1150.133	40.01	
1153.461	41.66	
1156.786	35.69	
1160.109	29.39	
1163.43	35.03	
1166.748	28.4	
1170.063	27.74	
1173.376	27.4	
1176.687	26.74	
1179.995	29.73	
1183.3	28.07	
1186.603	25.08	
1189.904	29.73	
1193.202	28.73	
1196.498	31.05	
1199.791	37.02	
1203.082	34.37	
1206.37	44.98	
1209.656	43.32	
1212.94	49.29	
1216.221	57.92	
1219.499	53.94	
1222.775	61.56	
1226.049	63.22	
1229.32	73.17	
1232.589	75.49	
1235.856	88.1	
1239.12	90.09	
1242.381	81.13	
1245.64	81.8	
1248.897	86.11	
1252.151	83.12	
1255.403	83.79	
1258.652	91.41	
1261.9	98.05	
1265.144	95.73	
1268.386	119.28	
1271.626	124.58	
1274.864	133.54	
1278.099	142.16	
1281.331	138.51	
1284.562	129.23	
1287.789	123.26	
1291.015	116.62	
1294.238	102.03	
1297.459	101.7	
1300.677	85.78	
1303.893	76.16	
1307.106	75.16	
1310.318	64.22	
1313.526	66.54	
1316.733	52.94	
1319.937	60.9	
1323.139	59.58	
1326.338	57.25	
1329.535	48.63	
1332.73	51.28	
1335.922	51.95	
1339.112	53.94	
1342.3	52.61	
1345.485	53.61	
1348.668	51.95	
1351.848	50.95	
1355.027	64.22	
1358.203	64.22	
1361.376	52.94	
1364.547	54.6	
1367.716	51.62	
1370.883	56.92	
1374.047	49.96	
1377.209	56.26	
1380.369	60.9	
1383.526	56.26	
1386.681	60.9	
1389.834	61.57	
1392.984	59.24	
1396.132	67.54	
1399.278	60.57	
1402.421	63.56	
1405.562	60.9	
1408.701	67.54	
1411.838	64.88	
1414.972	71.52	
1418.104	72.51	
1421.234	79.14	
1424.361	81.47	
1427.486	87.1	
1430.609	94.4	
1433.73	100.7	
1436.848	114.3	
1439.964	124.91	
1443.078	134.2	
1446.189	144.48	
1449.299	159.08	
1452.405	146.14	
1455.51	152.11	
1458.613	151.12	
1461.713	162.73	
1464.811	153.77	
1467.906	153.77	
1471	144.81	
1474.091	134.86	
1477.18	112.31	
1480.267	90.75	
1483.351	71.85	
1486.433	59.58	
1489.513	50.95	
1492.591	43.99	
1495.666	39.68	
1498.74	36.36	
1501.811	39.01	
1504.879	30.39	
1507.946	28.73	
1511.01	24.42	
1514.073	26.41	
1517.132	30.72	
1520.19	21.43	
1523.246	23.42	
1526.299	21.1	
1529.35	23.42	
1532.399	23.42	
1535.446	27.07	
1538.49	18.78	
1541.532	22.76	
1544.572	18.78	
1547.61	17.45	
1550.646	15.8	
1553.68	16.46	
1556.711	17.45	
1559.74	14.8	
1562.767	15.8	
1565.792	16.79	
1568.814	15.8	
1571.835	15.8	
1574.853	15.46	
1577.869	15.13	
1580.883	16.13	
1583.895	15.13	
1586.904	13.47	
1589.912	12.81	
1592.917	10.82	
1595.92	14.8	
1598.921	12.48	
1601.92	13.14	
1604.917	9.49	
1607.911	11.48	
1610.903	11.15	
1613.894	12.48	
1616.882	20.44	
1619.868	12.15	
1622.851	15.13	
1625.833	13.47	
1628.812	12.15	
1631.79	14.47	
1634.765	11.48	
1637.738	13.47	
1640.709	12.15	
1643.678	14.14	
1646.645	17.12	
1649.609	14.8	
1652.572	11.82	
1655.532	17.12	
1658.49	17.45	
1661.447	16.46	
1664.401	15.8	
1667.353	15.46	
1670.302	18.45	
1673.25	17.45	
1676.196	22.76	
1679.139	24.09	
1682.081	21.1	
1685.02	23.42	
1687.957	27.07	
1690.893	26.41	
1693.826	25.75	
1696.757	34.04	
1699.686	29.06	
1702.612	36.36	
1705.537	31.05	
1708.46	34.04	
1711.38	33.37	
1714.299	34.04	
1717.215	34.7	
1720.13	37.02	
1723.042	31.38	
1725.952	28.07	
1728.86	26.74	
1731.767	21.1	
1734.671	21.77	
1737.573	26.08	
1740.473	22.1	
1743.37	22.76	
1746.266	19.11	
1749.16	22.1	
1752.052	22.76	
1754.942	20.44	
1757.829	19.44	
1760.715	15.8	
1763.598	12.81	
1766.48	9.83	
1769.36	9.16	
1772.237	12.81	
1775.112	8.17	
1777.986	6.84	
1780.857	9.16	
1783.727	5.51	
1786.594	8.17	
1789.459	13.14	
1792.323	8.83	
1795.184	0.87	
1798.043	6.84	
1800.9	4.19	
1803.756	11.15	
1806.609	4.85	
1809.46	5.85	
1812.309	3.19	
1815.157	3.86	
1818.002	5.18	
1820.845	6.84	
1823.686	5.18	
1826.526	2.2	
1829.363	5.18	
1832.198	4.19	
1835.031	6.51	
1837.863	8.17	
1840.692	2.2	
1843.519	4.85	
1846.345	4.19	
1849.168	4.52	
1851.989	2.2	
1854.809	8.5	
1857.626	2.86	
1860.441	2.86	
1863.255	5.51	
1866.066	8.17	
1868.876	1.2	
1871.684	6.18	
1874.489	0.87	
1877.293	2.53	
1880.095	6.51	
1882.894	4.85	
1885.692	5.51	
1888.488	2.2	
1891.282	-0.12	
1894.074	2.53	
1896.864	-0.46	
1899.652	2.53	
1902.438	2.86	
1905.222	-0.12	
1908.004	5.18	
1910.785	5.51	
1913.563	3.86	
1916.339	-1.12	
1919.114	0.21	
1921.886	2.86	
1924.657	1.87	
1927.426	0.87	
1930.193	1.87	
1932.957	4.85	
1935.72	2.86	
1938.481	4.52	
1941.24	6.84	
1943.998	4.19	
1946.753	-0.46	
1949.506	2.53	
1952.258	1.2	
1955.007	0.54	
1957.755	2.2	
1960.501	-0.46	
1963.245	1.53	
1965.986	3.86	
1968.726	3.19	
1971.465	-0.12	
1974.201	0.87	
1976.935	-2.45	
1979.668	0.21	
1982.398	6.51	
1985.127	5.18	
1987.854	2.86	
1990.579	3.19	
1993.302	-1.12	
1996.023	3.19	
1998.742	-1.45	
2001.46	1.87	
2004.175	1.87	
2006.889	1.2	
2009.6	-0.46	
2012.31	3.52	
2015.018	1.87	
2017.725	1.87	
2020.429	7.17	
2023.131	2.2	
2025.832	2.86	
2028.531	1.2	
2031.228	1.87	
2033.923	-2.11	
2036.616	0.54	
2039.307	-1.45	
2041.997	0.54	
2044.684	1.53	
2047.37	0.87	
2050.054	1.2	
2052.736	4.19	
2055.416	3.52	
2058.095	0.54	
2060.771	5.18	
2063.446	-0.46	
2066.119	1.87	
2068.79	-4.44	
2071.459	0.54	
2074.127	0.87	
2076.792	3.19	
2079.456	-1.78	
2082.118	-0.79	
2084.778	-6.76	
2087.436	-5.1	
2090.093	-2.11	
2092.747	0.54	
2095.4	1.53	
2098.051	1.2	
2100.7	1.53	
2103.348	3.86	
2105.993	1.87	
2108.637	1.2	
2111.279	2.53	
2113.919	-1.78	
2116.558	0.21	
2119.194	1.87	
2121.829	2.2	
2124.462	1.2	
2127.093	3.86	
2129.723	0.87	
2132.35	3.19	
2134.976	4.19	
2137.6	2.53	
2140.223	1.2	
2142.843	3.19	
2145.462	1.2	
2148.079	-3.44	
2150.694	-1.12	
2153.307	-0.12	
2155.919	0.87	
2158.528	1.2	
2161.137	0.21	
2163.743	-0.79	
2166.347	-5.43	
2168.95	-2.11	
2171.551	-0.46	
2174.15	1.87	
2176.748	0.87	
2179.343	6.84	
2181.937	3.86	
2184.529	-1.45	
2187.12	6.51	
2189.708	1.2	
2192.295	1.87	
2194.88	1.53	
2197.464	3.19	
2200.045	2.2	
2202.625	-0.46	
2205.203	2.53	
2207.78	0.21	
2210.355	0.21	
2212.928	2.53	
2215.499	3.19	
2218.068	2.53	
2220.636	3.52	
2223.202	1.87	
2225.766	3.19	
2228.329	-1.78	
2230.889	5.51	
2233.449	2.53	
2236.006	7.17	
2238.562	4.19	
2241.115	0.87	
2243.668	-0.79	
2246.218	2.86	
2248.767	5.51	
2251.314	4.52	
2253.859	6.18	
2256.403	2.86	
2258.945	-0.79	
2261.485	3.19	
2264.023	3.86	
2266.56	2.86	
2269.095	2.53	
2271.629	5.18	
2274.16	5.18	
2276.69	6.84	
2279.219	0.87	
2281.745	1.87	
2284.27	6.51	
2286.793	1.2	
2289.315	3.86	
2291.835	0.54	
2294.353	2.2	
2296.869	6.84	
2299.384	0.54	
2301.897	2.86	
2304.408	-1.12	
2306.918	4.52	
2309.426	-1.45	
2311.932	2.86	
2314.437	1.53	
2316.94	1.2	
2319.441	1.53	
2321.941	1.53	
2324.439	3.52	
2326.935	-2.78	
2329.43	1.87	
2331.923	2.2	
2334.414	2.53	
2336.904	0.54	
2339.392	2.53	
2341.878	3.86	
2344.363	2.2	
2346.846	1.2	
2349.328	1.87	
2351.807	5.85	
2354.285	3.19	
2356.762	1.53	
2359.237	1.53	
2361.71	1.87	
2364.181	-0.12	
2366.651	2.86	
2369.119	-3.44	
2371.586	8.17	
2374.051	2.86	
2376.514	1.87	
2378.976	4.85	
2381.436	3.19	
2383.894	3.86	
2386.351	2.86	
2388.806	-0.79	
2391.259	3.19	
2393.711	7.5	
2396.161	5.51	
2398.61	2.86	
2401.057	5.18	
2403.502	3.19	
2405.946	3.19	
2408.388	1.53	
2410.829	1.87	
2413.268	0.21	
2415.705	2.53	
2418.141	2.2	
2420.575	-2.78	
2423.007	4.85	
2425.438	-0.79	
2427.867	0.54	
2430.295	2.2	
2432.721	0.87	
2435.145	1.87	
2437.568	2.53	
2439.989	-0.79	
2442.409	4.52	
2444.827	3.86	
2447.243	0.54	
2449.658	2.2	
2452.071	3.19	
2454.483	0.21	
2456.893	-0.12	
2459.302	2.53	
2461.709	-2.11	
2464.114	3.86	
2466.518	1.53	
2468.92	0.87	
2471.32	2.2	
2473.719	0.87	
2476.117	3.86	
2478.512	5.85	
2480.907	0.87	
2483.299	1.87	
2485.691	2.53	
2488.08	0.87	
2490.468	4.19	
2492.854	3.52	
2495.239	2.86	
2497.623	3.86	
2500.004	-0.12	
2502.384	2.53	
2504.763	6.51	
2507.14	8.17	
2509.515	2.86	
2511.889	3.52	
2514.262	5.18	
2516.633	7.5	
2519.002	1.87	
2521.369	2.86	
2523.736	-0.79	
2526.1	2.53	
2528.463	4.52	
2530.825	1.53	
2533.185	4.52	
2535.543	5.51	
2537.9	5.18	
2540.255	1.53	
2542.609	1.87	
2544.961	5.18	
2547.312	5.85	
2549.661	2.53	
2552.009	3.19	
2554.355	3.52	
2556.7	7.17	
2559.043	3.86	
2561.384	4.19	
2563.724	4.19	
2566.063	5.85	
2568.4	6.51	
2570.735	6.18	
2573.069	3.19	
2575.402	1.53	
2577.733	5.85	
2580.062	1.87	
2582.39	3.19	
2584.716	6.84	
2587.041	3.86	
2589.364	3.52	
2591.686	-1.78	
2594.006	6.84	
2596.325	3.52	
2598.643	4.85	
2600.958	6.51	
2603.273	1.87	
2605.585	5.18	
2607.897	1.87	
2610.206	3.19	
2612.515	3.86	
2614.822	4.19	
2617.127	0.87	
2619.431	1.87	
2621.733	3.19	
2624.034	3.86	
2626.333	3.52	
2628.631	5.85	
2630.927	7.5	
2633.222	0.54	
2635.515	-0.12	
2637.807	5.85	
2640.098	3.86	
2642.387	4.19	
2644.674	2.2	
2646.96	6.51	
2649.245	3.86	
2651.528	7.17	
2653.809	7.84	
2656.089	2.53	
2658.368	4.85	
2660.645	9.83	
2662.921	5.18	
2665.195	1.53	
2667.468	4.52	
2669.739	5.18	
2672.009	4.19	
2674.277	7.17	
2676.544	6.84	
2678.809	4.52	
2681.073	5.51	
2683.336	10.16	
2685.597	7.17	
2687.856	9.83	
2690.115	9.49	
2692.371	13.14	
2694.626	8.5	
2696.88	11.48	
2699.133	13.14	
2701.383	10.82	
2703.633	10.49	
2705.881	13.14	
2708.127	14.8	
2710.373	12.48	
2712.616	12.48	
2714.859	10.82	
2717.099	14.14	
2719.339	14.14	
2721.577	16.46	
2723.813	15.46	
2726.048	16.79	
2728.282	14.47	
2730.514	15.46	
2732.745	16.79	
2734.974	15.46	
2737.202	14.8	
2739.428	14.8	
2741.653	17.12	
2743.877	14.14	
2746.099	14.8	
2748.32	16.13	
2750.539	15.8	
2752.757	19.77	
2754.974	14.8	
2757.189	18.45	
2759.403	15.8	
2761.615	16.13	
2763.826	23.75	
2766.035	17.78	
2768.243	22.43	
2770.45	20.11	
2772.655	21.43	
2774.859	22.1	
2777.062	23.75	
2779.263	24.75	
2781.462	23.75	
2783.66	20.77	
2785.857	28.07	
2788.053	28.07	
2790.247	26.74	
2792.439	28.4	
2794.631	31.05	
2796.82	30.06	
2799.009	32.05	
2801.196	32.38	
2803.382	32.05	
2805.566	31.38	
2807.749	33.7	
2809.93	36.69	
2812.11	40.67	
2814.289	36.36	
2816.466	38.35	
2818.642	42.66	
2820.817	42.99	
2822.99	49.62	
2825.162	44.98	
2827.332	43.65	
2829.502	50.62	
2831.669	49.29	
2833.836	50.95	
2836	49.62	
2838.164	51.28	
2840.326	56.26	
2842.487	58.91	
2844.647	60.9	
2846.805	65.21	
2848.961	67.87	
2851.117	69.86	
2853.271	73.5	
2855.423	73.5	
2857.575	74.5	
2859.725	80.14	
2861.873	86.44	
2864.02	87.77	
2866.166	87.1	
2868.311	97.05	
2870.454	98.71	
2872.596	99.37	
2874.736	104.68	
2876.875	100.04	
2879.013	99.37	
2881.149	104.02	
2883.284	102.69	
2885.418	100.7	
2887.551	100.7	
2889.682	100.04	
2891.811	100.7	
2893.94	97.72	
2896.067	98.05	
2898.192	92.41	
2900.317	96.06	
2902.439	91.08	
2904.561	95.39	
2906.681	89.76	
2908.8	91.41	
2910.918	92.74	
2913.034	94.07	
2915.149	93.4	
2917.263	100.04	
2919.375	95.73	
2921.486	92.74	
2923.596	96.39	
2925.704	102.03	
2927.811	101.7	
2929.917	102.69	
2932.021	107.66	
2934.124	109.99	
2936.226	109.32	
2938.327	103.35	
2940.426	101.7	
2942.524	107	
2944.62	100.7	
2946.715	94.73	
2948.809	89.42	
2950.902	88.76	
2952.993	82.46	
2955.083	77.48	
2957.171	76.49	
2959.259	69.19	
2961.345	59.91	
2963.429	60.24	
2965.513	57.92	
2967.595	55.26	
2969.676	55.26	
2971.755	46.64	
2973.833	49.29	
2975.91	42.99	
2977.986	40.67	
2980.06	37.68	
2982.133	34.04	
2984.205	34.7	
2986.275	32.38	
2988.345	29.39	
2990.412	27.73	
2992.479	25.41	
2994.544	18.78	
2996.608	21.43	
2998.671	21.1	
3000.732	20.44	
3002.792	20.77	
3004.851	18.45	
3006.909	14.14	
3008.965	16.79	
3011.02	16.13	
3013.074	16.79	
3015.126	10.49	
3017.177	12.81	
3019.227	13.47	
3021.276	13.81	
3023.323	12.81	
3025.369	12.48	
3027.414	8.5	
3029.458	11.82	
3031.5	10.49	
3033.541	10.82	
3035.581	9.16	
3037.619	6.18	
3039.656	7.17	
3041.692	9.16	
3043.727	6.18	
3045.76	7.5	
3047.793	5.18	
3049.824	3.19	
3051.853	-2.11	
3053.882	2.2	
3055.909	-0.46	
