RamanShift:204		
0.351	20.45	
4.587	7.84	
8.82	0.54	
13.049	5.18	
17.275	1.2	
21.497	-0.12	
25.716	-0.12	
29.931	1.87	
34.142	-0.12	
38.351	0.54	
42.555	0.21	
46.756	-1.45	
50.954	2.2	
55.148	-0.46	
59.339	3.19	
63.527	-2.11	
67.71	-0.79	
71.891	1.53	
76.068	-0.79	
80.241	3.19	
84.411	3.52	
88.578	-0.79	
92.741	0.87	
96.901	5.51	
101.057	2.2	
105.21	4.85	
109.359	3.52	
113.505	5.51	
117.648	10.16	
121.787	8.5	
125.923	6.51	
130.055	10.49	
134.184	12.15	
138.31	16.79	
142.432	22.43	
146.551	23.42	
150.667	26.08	
154.779	28.4	
158.887	35.03	
162.993	37.02	
167.095	40.01	
171.193	43.65	
175.289	46.64	
179.381	52.28	
183.469	52.61	
187.554	57.58	
191.636	57.58	
195.715	60.57	
199.79	61.9	
203.862	63.55	
207.931	70.52	
211.996	67.2	
216.058	72.84	
220.116	68.86	
224.172	67.53	
228.224	71.18	
232.272	75.16	
236.318	76.49	
240.36	74.83	
244.399	81.8	
248.434	75.16	
252.466	76.16	
256.495	79.14	
260.521	76.16	
264.544	72.84	
268.563	74.83	
272.579	72.51	
276.591	70.85	
280.601	76.49	
284.607	72.18	
288.61	82.79	
292.609	86.44	
296.606	91.08	
300.599	83.12	
304.589	90.42	
308.575	87.1	
312.559	91.75	
316.539	92.74	
320.516	93.74	
324.49	110.32	
328.461	116.95	
332.428	123.59	
336.392	139.84	
340.353	141.5	
344.311	139.17	
348.266	141.83	
352.217	132.21	
356.165	119.61	
360.11	111.98	
364.052	102.03	
367.991	97.05	
371.926	85.11	
375.859	86.44	
379.788	83.79	
383.714	72.18	
387.637	68.2	
391.557	67.87	
395.473	63.89	
399.387	62.23	
403.297	65.21	
407.204	57.92	
411.108	56.26	
415.009	56.59	
418.907	57.58	
422.802	59.24	
426.693	56.92	
430.581	61.56	
434.467	60.57	
438.349	63.89	
442.228	59.91	
446.104	59.57	
449.977	61.9	
453.847	58.58	
457.713	55.59	
461.577	54.27	
465.438	52.28	
469.295	51.95	
473.149	49.62	
477.001	45.31	
480.849	46.31	
484.694	41	
488.536	39.01	
492.375	43.65	
496.211	43.32	
500.044	48.63	
503.874	50.29	
507.701	53.27	
511.525	58.58	
515.346	64.22	
519.163	64.22	
522.978	66.87	
526.79	66.54	
530.598	62.89	
534.404	60.9	
538.207	51.61	
542.006	55.26	
545.803	49.29	
549.596	50.62	
553.387	51.61	
557.175	46.97	
560.959	38.68	
564.741	44.65	
568.519	42.66	
572.295	38.02	
576.068	42	
579.837	36.36	
583.604	31.05	
587.368	34.37	
591.128	34.7	
594.886	34.7	
598.641	27.73	
602.393	29.72	
606.142	32.38	
609.887	27.4	
613.63	29.06	
617.37	24.75	
621.108	23.42	
624.842	23.75	
628.573	23.42	
632.301	29.72	
636.027	28.73	
639.749	26.74	
643.468	30.72	
647.185	30.06	
650.899	34.04	
654.609	40.34	
658.317	57.25	
662.022	75.49	
665.724	97.05	
669.423	105.34	
673.119	96.39	
676.813	62.23	
680.503	48.96	
684.191	38.02	
687.875	32.38	
691.557	41.33	
695.236	42.33	
698.912	49.62	
702.585	58.58	
706.256	55.26	
709.923	59.91	
713.588	61.9	
717.249	57.58	
720.908	69.52	
724.564	74.83	
728.217	73.84	
731.868	68.86	
735.515	70.52	
739.16	57.25	
742.801	50.95	
746.44	53.6	
750.076	57.25	
753.71	58.58	
757.34	62.56	
760.968	60.57	
764.593	62.23	
768.215	68.2	
771.834	53.27	
775.45	51.28	
779.064	48.63	
782.675	51.61	
786.283	43.32	
789.888	47.63	
793.49	48.3	
797.09	42	
800.686	49.29	
804.281	49.96	
807.872	52.28	
811.46	51.28	
815.046	49.62	
818.629	53.6	
822.209	51.95	
825.786	58.25	
829.361	59.91	
832.933	62.56	
836.502	66.21	
840.068	76.16	
843.632	84.78	
847.193	97.05	
850.751	107	
854.306	117.28	
857.859	131.21	
861.409	131.21	
864.956	137.52	
868.5	139.84	
872.042	140.5	
875.581	139.51	
879.117	134.53	
882.651	114.3	
886.182	97.05	
889.71	85.44	
893.235	83.79	
896.758	80.47	
900.278	82.46	
903.795	81.13	
907.31	72.51	
910.822	64.22	
914.331	58.58	
917.838	55.59	
921.341	48.63	
924.843	46.64	
928.341	43.65	
931.837	44.98	
935.33	39.34	
938.821	43.99	
942.308	50.62	
945.793	40.67	
949.276	43.65	
952.756	42.33	
956.233	40.01	
959.707	38.68	
963.179	40.01	
966.649	39.34	
970.115	37.02	
973.579	41.33	
977.04	49.29	
980.499	49.96	
983.955	52.94	
987.408	56.59	
990.859	58.25	
994.307	60.24	
997.753	71.85	
1001.196	83.45	
1004.636	101.36	
1008.074	125.58	
1011.509	143.15	
1014.941	159.74	
1018.371	179.97	
1021.798	180.3	
1025.223	188.59	
1028.645	176.65	
1032.064	168.69	
1035.481	158.74	
1038.896	159.74	
1042.307	160.07	
1045.716	155.43	
1049.123	157.75	
1052.527	168.69	
1055.928	175.66	
1059.327	183.95	
1062.723	181.3	
1066.117	172.01	
1069.508	167.37	
1072.897	160.4	
1076.283	135.53	
1079.666	121.6	
1083.047	108.99	
1086.425	90.75	
1089.801	75.83	
1093.174	65.88	
1096.545	62.56	
1099.913	61.23	
1103.279	52.28	
1106.642	50.95	
1110.002	52.28	
1113.36	48.63	
1116.716	51.28	
1120.069	49.29	
1123.419	47.63	
1126.767	53.6	
1130.113	48.3	
1133.456	50.29	
1136.796	58.25	
1140.134	54.6	
1143.47	64.88	
1146.802	65.88	
1150.133	57.25	
1153.461	63.89	
1156.786	64.88	
1160.109	48.3	
1163.43	44.98	
1166.748	46.97	
1170.063	37.35	
1173.376	37.68	
1176.687	32.71	
1179.995	31.71	
1183.3	34.04	
1186.603	35.03	
1189.904	36.03	
1193.202	42	
1196.498	38.35	
1199.791	42.33	
1203.082	44.32	
1206.37	46.97	
1209.656	51.61	
1212.94	51.61	
1216.221	51.95	
1219.499	58.91	
1222.775	56.26	
1226.049	63.89	
1229.32	64.55	
1232.589	67.2	
1235.856	68.2	
1239.12	71.85	
1242.381	79.47	
1245.64	83.79	
1248.897	83.79	
1252.151	85.11	
1255.403	87.43	
1258.652	87.77	
1261.9	91.41	
1265.144	90.42	
1268.386	92.74	
1271.626	100.7	
1274.864	98.05	
1278.099	99.71	
1281.331	107.67	
1284.562	114.63	
1287.789	113.3	
1291.015	114.63	
1294.238	114.96	
1297.459	110.98	
1300.677	103.69	
1303.893	91.42	
1307.106	92.74	
1310.318	92.08	
1313.526	88.76	
1316.733	85.45	
1319.937	85.45	
1323.139	85.11	
1326.338	91.08	
1329.535	76.49	
1332.73	85.45	
1335.922	80.8	
1339.112	73.17	
1342.3	70.85	
1345.485	66.54	
1348.668	69.53	
1351.848	76.49	
1355.027	79.48	
1358.203	75.16	
1361.376	80.47	
1364.547	84.78	
1367.716	93.07	
1370.883	88.43	
1374.047	90.75	
1377.209	86.11	
1380.369	90.75	
1383.526	80.8	
1386.681	77.49	
1389.834	78.81	
1392.984	79.81	
1396.132	81.13	
1399.278	79.14	
1402.421	79.81	
1405.562	83.46	
1408.701	80.14	
1411.838	88.43	
1414.972	77.15	
1418.104	87.77	
1421.234	97.05	
1424.361	93.41	
1427.486	102.69	
1430.609	116.62	
1433.73	126.24	
1436.848	140.5	
1439.964	154.77	
1443.078	167.7	
1446.189	174.33	
1449.299	194.9	
1452.405	197.55	
1455.51	201.86	
1458.613	199.87	
1461.713	196.89	
1464.811	191.58	
1467.906	168.7	
1471	147.8	
1474.091	131.22	
1477.18	116.29	
1480.267	91.08	
1483.351	82.79	
1486.433	63.55	
1489.513	55.59	
1492.591	44.65	
1495.666	44.32	
1498.74	37.35	
1501.811	40.34	
1504.879	29.39	
1507.946	34.04	
1511.01	30.39	
1514.073	32.05	
1517.132	26.08	
1520.19	23.42	
1523.246	19.11	
1526.299	26.08	
1529.35	22.76	
1532.399	19.11	
1535.446	20.77	
1538.49	22.43	
1541.532	23.09	
1544.572	27.07	
1547.61	19.78	
1550.646	20.11	
1553.68	20.11	
1556.711	16.79	
1559.74	13.47	
1562.767	20.44	
1565.792	16.13	
1568.814	18.45	
1571.835	20.44	
1574.853	18.12	
1577.869	17.12	
1580.883	17.12	
1583.895	20.77	
1586.904	15.13	
1589.912	12.81	
1592.917	20.44	
1595.92	22.43	
1598.921	20.11	
1601.92	13.14	
1604.917	15.46	
1607.911	16.46	
1610.903	17.12	
1613.894	19.44	
1616.882	16.13	
1619.868	14.47	
1622.851	14.14	
1625.833	17.12	
1628.812	15.13	
1631.79	15.13	
1634.765	15.13	
1637.738	14.14	
1640.709	10.49	
1643.678	17.45	
1646.645	17.12	
1649.609	19.11	
1652.572	22.76	
1655.532	13.47	
1658.49	15.8	
1661.447	10.49	
1664.401	9.83	
1667.353	9.83	
1670.302	12.15	
1673.25	12.81	
1676.196	12.15	
1679.139	14.8	
1682.081	11.15	
1685.02	14.14	
1687.957	11.48	
1690.893	12.15	
1693.826	10.49	
1696.757	13.81	
1699.686	9.49	
1702.612	8.83	
1705.537	11.15	
1708.46	9.16	
1711.38	10.49	
1714.299	8.5	
1717.215	9.49	
1720.13	10.49	
1723.042	11.15	
1725.952	18.12	
1728.86	6.18	
1731.767	11.48	
1734.671	9.49	
1737.573	10.16	
1740.473	8.17	
1743.37	10.16	
1746.266	11.82	
1749.16	8.5	
1752.052	8.83	
1754.942	10.49	
1757.829	8.17	
1760.715	7.84	
1763.598	8.5	
1766.48	3.19	
1769.36	10.16	
1772.237	7.17	
1775.112	6.51	
1777.986	9.83	
1780.857	8.83	
1783.727	9.49	
1786.594	8.83	
1789.459	3.86	
1792.323	10.49	
1795.184	10.82	
1798.043	8.17	
1800.9	2.86	
1803.756	7.5	
1806.609	7.84	
1809.46	10.16	
1812.309	8.17	
1815.157	9.49	
1818.002	7.5	
1820.845	5.18	
1823.686	3.86	
1826.526	8.5	
1829.363	8.17	
1832.198	9.83	
1835.031	8.17	
1837.863	6.51	
1840.692	10.49	
1843.519	6.84	
1846.345	4.85	
1849.168	4.52	
1851.989	8.5	
1854.809	8.17	
1857.626	7.5	
1860.441	7.17	
1863.255	11.15	
1866.066	7.17	
1868.876	9.16	
1871.684	6.51	
1874.489	5.18	
1877.293	2.53	
1880.095	2.86	
1882.894	6.84	
1885.692	5.18	
1888.488	1.53	
1891.282	1.53	
1894.074	7.84	
1896.864	6.84	
1899.652	6.51	
1902.438	7.84	
1905.222	8.5	
1908.004	4.85	
1910.785	7.17	
1913.563	1.53	
1916.339	4.19	
1919.114	5.18	
1921.886	6.51	
1924.657	4.85	
1927.426	3.52	
1930.193	8.83	
1932.957	6.18	
1935.72	5.85	
1938.481	7.5	
1941.24	3.86	
1943.998	2.2	
1946.753	4.52	
1949.506	3.52	
1952.258	4.19	
1955.007	2.53	
1957.755	3.19	
1960.501	2.86	
1963.245	2.53	
1965.986	10.82	
1968.726	5.51	
1971.465	2.86	
1974.201	5.18	
1976.935	7.5	
1979.668	7.17	
1982.398	6.51	
1985.127	3.52	
1987.854	3.19	
1990.579	3.86	
1993.302	2.2	
1996.023	1.53	
1998.742	8.17	
2001.46	4.85	
2004.175	4.19	
2006.889	6.51	
2009.6	2.53	
2012.31	3.86	
2015.018	2.53	
2017.725	4.85	
2020.429	5.18	
2023.131	5.51	
2025.832	3.52	
2028.531	4.19	
2031.228	4.52	
2033.923	6.18	
2036.616	3.52	
2039.307	4.19	
2041.997	3.86	
2044.684	5.51	
2047.37	4.52	
2050.054	0.21	
2052.736	2.86	
2055.416	2.2	
2058.095	4.85	
2060.771	8.17	
2063.446	2.53	
2066.119	4.19	
2068.79	4.52	
2071.459	2.2	
2074.127	1.2	
2076.792	5.18	
2079.456	1.87	
2082.118	1.87	
2084.778	6.18	
2087.436	4.85	
2090.093	0.87	
2092.747	3.19	
2095.4	0.21	
2098.051	1.2	
2100.7	3.52	
2103.348	1.2	
2105.993	4.85	
2108.637	3.86	
2111.279	1.87	
2113.919	3.86	
2116.558	4.85	
2119.194	4.85	
2121.829	0.21	
2124.462	3.52	
2127.093	4.85	
2129.723	1.87	
2132.35	1.2	
2134.976	2.2	
2137.6	1.2	
2140.223	4.52	
2142.843	-4.1	
2145.462	8.17	
2148.079	2.86	
2150.694	1.87	
2153.307	2.2	
2155.919	1.53	
2158.528	2.53	
2161.137	0.21	
2163.743	2.86	
2166.347	1.53	
2168.95	-0.12	
2171.551	2.2	
2174.15	-4.44	
2176.748	3.86	
2179.343	2.53	
2181.937	2.86	
2184.529	2.53	
2187.12	2.2	
2189.708	2.86	
2192.295	1.87	
2194.88	3.52	
2197.464	2.53	
2200.045	2.2	
2202.625	4.19	
2205.203	2.2	
2207.78	1.53	
2210.355	4.85	
2212.928	3.86	
2215.499	-0.46	
2218.068	6.18	
2220.636	4.19	
2223.202	6.18	
2225.766	7.17	
2228.329	0.54	
2230.889	3.19	
2233.449	4.85	
2236.006	3.19	
2238.562	1.2	
2241.115	5.51	
2243.668	3.52	
2246.218	-0.46	
2248.767	10.49	
2251.314	0.87	
2253.859	4.19	
2256.403	3.19	
2258.945	4.52	
2261.485	4.52	
2264.023	0.21	
2266.56	2.86	
2269.095	2.53	
2271.629	6.18	
2274.16	5.85	
2276.69	2.2	
2279.219	0.21	
2281.745	-1.78	
2284.27	3.19	
2286.793	1.53	
2289.315	-0.79	
2291.835	7.17	
2294.353	4.52	
2296.869	0.21	
2299.384	4.19	
2301.897	5.18	
2304.408	0.87	
2306.918	3.19	
2309.426	1.2	
2311.932	3.19	
2314.437	6.51	
2316.94	6.84	
2319.441	-0.46	
2321.941	-1.12	
2324.439	3.52	
2326.935	1.87	
2329.43	1.53	
2331.923	2.53	
2334.414	2.86	
2336.904	1.2	
2339.392	4.52	
2341.878	2.2	
2344.363	1.53	
2346.846	-1.45	
2349.328	5.18	
2351.807	-0.12	
2354.285	2.2	
2356.762	4.19	
2359.237	-1.45	
2361.71	2.86	
2364.181	2.86	
2366.651	4.19	
2369.119	0.54	
2371.586	4.52	
2374.051	1.87	
2376.514	1.2	
2378.976	3.86	
2381.436	5.51	
2383.894	1.2	
2386.351	2.53	
2388.806	4.85	
2391.259	3.52	
2393.711	3.19	
2396.161	-0.79	
2398.61	3.19	
2401.057	0.87	
2403.502	-0.12	
2405.946	3.19	
2408.388	0.87	
2410.829	2.53	
2413.268	2.53	
2415.705	2.2	
2418.141	0.87	
2420.575	0.87	
2423.007	1.53	
2425.438	1.53	
2427.867	5.51	
2430.295	-1.78	
2432.721	1.87	
2435.145	2.2	
2437.568	2.53	
2439.989	3.86	
2442.409	2.2	
2444.827	3.86	
2447.243	3.52	
2449.658	0.21	
2452.071	1.87	
2454.483	3.19	
2456.893	7.17	
2459.302	3.52	
2461.709	1.2	
2464.114	4.85	
2466.518	2.53	
2468.92	2.2	
2471.32	4.85	
2473.719	3.86	
2476.117	-0.79	
2478.512	6.18	
2480.907	7.17	
2483.299	2.2	
2485.691	4.85	
2488.08	3.19	
2490.468	3.86	
2492.854	0.54	
2495.239	0.87	
2497.623	3.19	
2500.004	1.87	
2502.384	5.51	
2504.763	4.85	
2507.14	3.19	
2509.515	6.18	
2511.889	2.2	
2514.262	4.19	
2516.633	3.52	
2519.002	4.52	
2521.369	3.86	
2523.736	4.19	
2526.1	6.84	
2528.463	0.21	
2530.825	8.17	
2533.185	3.19	
2535.543	5.51	
2537.9	-0.46	
2540.255	2.53	
2542.609	2.86	
2544.961	1.2	
2547.312	5.51	
2549.661	2.2	
2552.009	6.18	
2554.355	7.5	
2556.7	5.85	
2559.043	-1.12	
2561.384	2.53	
2563.724	5.18	
2566.063	7.5	
2568.4	3.19	
2570.735	1.53	
2573.069	3.19	
2575.402	3.19	
2577.733	1.2	
2580.062	3.52	
2582.39	3.19	
2584.716	5.51	
2587.041	4.19	
2589.364	5.51	
2591.686	4.85	
2594.006	0.21	
2596.325	3.19	
2598.643	5.51	
2600.958	6.18	
2603.273	3.86	
2605.585	8.17	
2607.897	6.51	
2610.206	2.2	
2612.515	5.51	
2614.822	3.52	
2617.127	0.87	
2619.431	4.85	
2621.733	6.18	
2624.034	2.86	
2626.333	5.51	
2628.631	7.84	
2630.927	2.53	
2633.222	5.18	
2635.515	4.52	
2637.807	4.85	
2640.098	6.84	
2642.387	9.49	
2644.674	3.86	
2646.96	4.52	
2649.245	6.18	
2651.528	5.51	
2653.809	7.17	
2656.089	4.52	
2658.368	7.17	
2660.645	9.49	
2662.921	7.84	
2665.195	7.17	
2667.468	10.16	
2669.739	9.16	
2672.009	6.51	
2674.277	7.5	
2676.544	4.52	
2678.809	10.82	
2681.073	8.17	
2683.336	9.49	
2685.597	13.47	
2687.856	16.13	
2690.115	14.47	
2692.371	11.82	
2694.626	13.14	
2696.88	15.8	
2699.133	13.81	
2701.383	19.44	
2703.633	13.14	
2705.881	17.12	
2708.127	16.79	
2710.373	15.8	
2712.616	15.13	
2714.859	21.1	
2717.099	19.11	
2719.339	19.44	
2721.577	18.45	
2723.813	20.77	
2726.048	20.77	
2728.282	20.44	
2730.514	18.45	
2732.745	20.11	
2734.974	23.42	
2737.202	22.43	
2739.428	19.11	
2741.653	17.45	
2743.877	23.42	
2746.099	21.1	
2748.32	23.75	
2750.539	19.44	
2752.757	20.77	
2754.974	25.41	
2757.189	25.74	
2759.403	21.76	
2761.615	27.4	
2763.826	27.07	
2766.035	26.74	
2768.243	24.42	
2770.45	28.73	
2772.655	25.08	
2774.859	25.08	
2777.062	29.72	
2779.263	33.04	
2781.462	32.05	
2783.66	32.38	
2785.857	33.37	
2788.053	35.03	
2790.247	35.36	
2792.439	36.69	
2794.631	37.35	
2796.82	44.98	
2799.009	41.33	
2801.196	41	
2803.382	47.63	
2805.566	49.62	
2807.749	51.28	
2809.93	52.94	
2812.11	54.93	
2814.289	55.26	
2816.466	58.58	
2818.642	60.57	
2820.817	62.89	
2822.99	67.53	
2825.162	69.52	
2827.332	63.22	
2829.502	68.2	
2831.669	70.85	
2833.836	69.19	
2836	70.85	
2838.164	67.2	
2840.326	71.85	
2842.487	77.15	
2844.647	72.84	
2846.805	74.17	
2848.961	78.15	
2851.117	77.48	
2853.271	77.48	
2855.423	83.45	
2857.575	81.13	
2859.725	75.16	
2861.873	81.13	
2864.02	88.43	
2866.166	80.14	
2868.311	84.12	
2870.454	83.45	
2872.596	79.14	
2874.736	88.43	
2876.875	87.1	
2879.013	92.41	
2881.149	94.73	
2883.284	96.72	
2885.418	96.72	
2887.551	95.39	
2889.682	98.05	
2891.811	92.74	
2893.94	97.05	
2896.067	90.09	
2898.192	92.41	
2900.317	95.39	
2902.439	90.42	
2904.561	89.09	
2906.681	91.75	
2908.8	92.08	
2910.918	95.39	
2913.034	98.71	
2915.149	99.7	
2917.263	97.38	
2919.375	101.69	
2921.486	100.04	
2923.596	99.04	
2925.704	97.05	
2927.811	92.41	
2929.917	95.39	
2932.021	90.42	
2934.124	96.06	
2936.226	92.41	
2938.327	91.08	
2940.426	92.41	
2942.524	90.75	
2944.62	87.76	
2946.715	90.09	
2948.809	87.76	
2950.902	88.76	
2952.993	79.81	
2955.083	84.78	
2957.171	82.46	
2959.259	75.49	
2961.345	68.53	
2963.429	70.85	
2965.513	62.56	
2967.595	59.57	
2969.676	62.56	
2971.755	56.59	
2973.833	49.62	
2975.91	48.3	
2977.986	44.32	
2980.06	42	
2982.133	40.34	
2984.205	32.38	
2986.275	28.07	
2988.345	30.06	
2990.412	29.72	
2992.479	28.07	
2994.544	28.07	
2996.608	22.76	
2998.671	26.74	
3000.732	19.44	
3002.792	16.79	
3004.851	13.47	
3006.909	17.45	
3008.965	17.12	
3011.02	14.14	
3013.074	15.13	
3015.126	13.81	
3017.177	10.82	
3019.227	9.83	
3021.276	10.82	
3023.323	8.83	
3025.369	7.17	
3027.414	5.51	
3029.458	7.5	
3031.5	2.86	
3033.541	3.52	
3035.581	6.18	
3037.619	5.18	
3039.656	5.18	
3041.692	5.18	
3043.727	4.52	
3045.76	6.18	
3047.793	4.85	
3049.824	6.51	
3051.853	-2.78	
3053.882	1.2	
3055.909	-0.79	
