RamanShift:204		
0.351	-240.69	
4.587	-33.62	
8.82	-14.39	
13.049	-10.07	
17.275	-6.43	
21.497	-3.44	
25.716	-4.77	
29.931	0.21	
34.142	-3.11	
38.351	-3.77	
42.555	-1.78	
46.756	-2.78	
50.954	-2.45	
55.148	-2.11	
59.339	-1.78	
63.527	-0.12	
67.71	-1.45	
71.891	1.53	
76.068	1.87	
80.241	0.54	
84.411	-0.46	
88.578	-0.12	
92.741	0.21	
96.901	1.2	
101.057	-4.44	
105.21	2.2	
109.359	0.54	
113.505	4.52	
117.648	6.84	
121.787	6.51	
125.923	7.5	
130.055	7.17	
134.184	7.5	
138.31	11.15	
142.432	13.81	
146.551	17.12	
150.667	20.11	
154.779	16.46	
158.887	27.07	
162.993	26.41	
167.095	27.07	
171.193	29.72	
175.289	31.38	
179.381	35.03	
183.469	38.02	
187.554	37.68	
191.636	40.01	
195.715	44.98	
199.79	45.31	
203.862	45.98	
207.931	47.3	
211.996	42	
216.058	48.3	
220.116	50.62	
224.172	50.62	
228.224	49.96	
232.272	49.29	
236.318	51.28	
240.36	52.28	
244.399	49.62	
248.434	46.64	
252.466	53.6	
256.495	53.94	
260.521	55.93	
264.544	50.62	
268.563	50.62	
272.579	47.97	
276.591	49.62	
280.601	50.29	
284.607	50.62	
288.61	51.28	
292.609	53.27	
296.606	50.29	
300.599	48.63	
304.589	49.29	
308.575	50.95	
312.559	57.25	
316.539	54.93	
320.516	62.23	
324.49	65.21	
328.461	61.9	
332.428	67.2	
336.392	73.84	
340.353	77.48	
344.311	76.82	
348.266	74.83	
352.217	65.88	
356.165	62.89	
360.11	56.26	
364.052	52.94	
367.991	50.29	
371.926	43.65	
375.859	40.01	
379.788	44.32	
383.714	35.03	
387.637	37.02	
391.557	34.7	
395.473	29.06	
399.387	35.03	
403.297	35.69	
407.204	29.72	
411.108	32.38	
415.009	32.05	
418.907	27.4	
422.802	31.71	
426.693	33.37	
430.581	33.7	
434.467	31.71	
438.349	37.68	
442.228	32.71	
446.104	35.36	
449.977	34.04	
453.847	39.67	
457.713	37.68	
461.577	38.68	
465.438	45.98	
469.295	57.25	
473.149	52.94	
477.001	54.6	
480.849	48.63	
484.694	42.66	
488.536	36.03	
492.375	33.37	
496.211	39.67	
500.044	36.69	
503.874	36.36	
507.701	41.66	
511.525	45.31	
515.346	44.32	
519.163	43.99	
522.978	45.98	
526.79	47.97	
530.598	41.66	
534.404	38.35	
538.207	37.68	
542.006	35.36	
545.803	30.39	
549.596	31.05	
553.387	30.06	
557.175	28.4	
560.959	23.42	
564.741	27.07	
568.519	25.74	
572.295	25.74	
576.068	25.08	
579.837	20.77	
583.604	19.77	
587.368	18.45	
591.128	19.77	
594.886	23.09	
598.641	16.13	
602.393	19.11	
606.142	15.13	
609.887	11.48	
613.63	17.45	
617.37	14.47	
621.108	13.47	
624.842	13.81	
628.573	11.82	
632.301	16.79	
636.027	15.13	
639.749	14.14	
643.468	12.81	
647.185	11.48	
650.899	11.82	
654.609	12.48	
658.317	19.44	
662.022	9.49	
665.724	9.83	
669.423	15.8	
673.119	15.46	
676.813	12.81	
680.503	9.83	
684.191	12.15	
687.875	15.46	
691.557	15.46	
695.236	11.82	
698.912	14.47	
702.585	17.45	
706.256	15.13	
709.923	20.11	
713.588	23.75	
717.249	25.08	
720.908	28.73	
724.564	31.71	
728.217	27.07	
731.868	29.06	
735.515	28.73	
739.16	19.78	
742.801	20.11	
746.44	26.08	
750.076	24.09	
753.71	26.08	
757.34	32.05	
760.968	27.73	
764.593	32.71	
768.215	32.71	
771.834	26.41	
775.45	28.4	
779.064	31.71	
782.675	35.36	
786.283	35.03	
789.888	40.01	
793.49	43.32	
797.09	44.65	
800.686	48.3	
804.281	51.95	
807.872	59.91	
811.46	56.26	
815.046	54.93	
818.629	61.9	
822.209	65.21	
825.786	63.55	
829.361	73.5	
832.933	71.85	
836.502	83.12	
840.068	99.37	
843.632	116.95	
847.193	142.49	
850.751	172.01	
854.306	199.54	
857.859	214.8	
861.409	207.5	
864.956	186.6	
868.5	162.06	
872.042	150.12	
875.581	136.19	
879.117	123.92	
882.651	113.64	
886.182	92.08	
889.71	79.14	
893.235	64.22	
896.758	53.27	
900.278	52.94	
903.795	46.97	
907.31	43.65	
910.822	42	
914.331	35.03	
917.838	32.71	
921.341	30.72	
924.843	32.38	
928.341	30.06	
931.837	27.73	
935.33	25.74	
938.821	26.41	
942.308	25.74	
945.793	17.45	
949.276	22.76	
952.756	20.77	
956.233	25.08	
959.707	22.43	
963.179	21.43	
966.649	21.43	
970.115	25.08	
973.579	28.73	
977.04	28.4	
980.499	30.39	
983.955	33.04	
987.408	39.01	
990.859	37.68	
994.307	38.02	
997.753	45.31	
1001.196	51.28	
1004.636	62.56	
1008.074	72.51	
1011.509	81.13	
1014.941	97.72	
1018.371	106.34	
1021.798	121.6	
1025.223	122.26	
1028.645	126.24	
1032.064	128.23	
1035.481	130.22	
1038.896	131.21	
1042.307	124.58	
1045.716	133.54	
1049.123	128.23	
1052.527	142.16	
1055.928	139.84	
1059.327	149.12	
1062.723	147.8	
1066.117	143.82	
1069.508	131.21	
1072.897	125.58	
1076.283	115.63	
1079.666	127.57	
1083.047	132.87	
1086.425	117.62	
1089.801	108.33	
1093.174	96.06	
1096.545	77.15	
1099.913	69.52	
1103.279	59.91	
1106.642	54.93	
1110.002	49.96	
1113.36	51.61	
1116.716	51.28	
1120.069	51.61	
1123.419	47.63	
1126.767	51.28	
1130.113	44.98	
1133.456	44.98	
1136.796	44.98	
1140.134	44.32	
1143.47	44.65	
1146.802	42.99	
1150.133	30.06	
1153.461	35.36	
1156.786	35.69	
1160.109	31.38	
1163.43	26.08	
1166.748	31.71	
1170.063	27.73	
1173.376	27.73	
1176.687	25.41	
1179.995	23.09	
1183.3	31.05	
1186.603	28.73	
1189.904	31.71	
1193.202	34.7	
1196.498	35.69	
1199.791	40.01	
1203.082	41.66	
1206.37	39.01	
1209.656	46.97	
1212.94	47.3	
1216.221	50.29	
1219.499	48.96	
1222.775	57.25	
1226.049	58.25	
1229.32	53.94	
1232.589	58.91	
1235.856	63.22	
1239.12	65.21	
1242.381	68.53	
1245.64	75.49	
1248.897	76.16	
1252.151	78.48	
1255.403	84.12	
1258.652	87.1	
1261.9	91.08	
1265.144	94.73	
1268.386	100.04	
1271.626	104.35	
1274.864	98.71	
1278.099	104.02	
1281.331	102.69	
1284.562	113.97	
1287.789	99.71	
1291.015	101.03	
1294.238	87.43	
1297.459	77.82	
1300.677	76.82	
1303.893	61.56	
1307.106	65.54	
1310.318	61.23	
1313.526	61.23	
1316.733	48.3	
1319.937	54.27	
1323.139	49.63	
1326.338	56.92	
1329.535	50.62	
1332.73	49.29	
1335.922	52.94	
1339.112	47.3	
1342.3	52.94	
1345.485	47.3	
1348.668	46.97	
1351.848	49.29	
1355.027	50.95	
1358.203	49.96	
1361.376	47.97	
1364.547	51.62	
1367.716	55.26	
1370.883	46.97	
1374.047	53.27	
1377.209	51.28	
1380.369	51.62	
1383.526	50.62	
1386.681	51.28	
1389.834	49.29	
1392.984	55.26	
1396.132	51.95	
1399.278	56.26	
1402.421	50.29	
1405.562	47.64	
1408.701	55.26	
1411.838	54.6	
1414.972	51.62	
1418.104	53.61	
1421.234	60.57	
1424.361	67.87	
1427.486	68.2	
1430.609	77.49	
1433.73	80.47	
1436.848	96.39	
1439.964	105.01	
1443.078	127.9	
1446.189	139.18	
1449.299	162.73	
1452.405	161.07	
1455.51	167.04	
1458.613	170.35	
1461.713	172.34	
1464.811	150.78	
1467.906	135.86	
1471	119.61	
1474.091	100.7	
1477.18	90.42	
1480.267	65.54	
1483.351	61.9	
1486.433	46.31	
1489.513	33.71	
1492.591	27.74	
1495.666	22.76	
1498.74	22.1	
1501.811	23.09	
1504.879	21.43	
1507.946	19.11	
1511.01	13.81	
1514.073	19.11	
1517.132	15.8	
1520.19	15.46	
1523.246	10.82	
1526.299	14.8	
1529.35	18.78	
1532.399	12.48	
1535.446	7.5	
1538.49	11.48	
1541.532	9.16	
1544.572	9.83	
1547.61	7.84	
1550.646	13.14	
1553.68	13.47	
1556.711	3.86	
1559.74	-0.12	
1562.767	5.51	
1565.792	5.85	
1568.814	3.19	
1571.835	6.51	
1574.853	5.18	
1577.869	9.83	
1580.883	5.85	
1583.895	5.18	
1586.904	4.19	
1589.912	7.5	
1592.917	9.49	
1595.92	11.15	
1598.921	7.17	
1601.92	2.2	
1604.917	3.86	
1607.911	4.19	
1610.903	5.51	
1613.894	9.16	
1616.882	1.87	
1619.868	4.52	
1622.851	1.53	
1625.833	8.17	
1628.812	0.21	
1631.79	5.51	
1634.765	-1.12	
1637.738	6.84	
1640.709	3.19	
1643.678	3.86	
1646.645	4.52	
1649.609	4.85	
1652.572	6.18	
1655.532	6.84	
1658.49	3.52	
1661.447	3.19	
1664.401	0.21	
1667.353	-0.79	
1670.302	4.52	
1673.25	-0.12	
1676.196	3.19	
1679.139	1.2	
1682.081	2.2	
1685.02	2.86	
1687.957	2.53	
1690.893	-0.46	
1693.826	-5.43	
1696.757	1.2	
1699.686	-3.11	
1702.612	-1.78	
1705.537	-0.46	
1708.46	-1.78	
1711.38	0.87	
1714.299	2.86	
1717.215	3.19	
1720.13	5.18	
1723.042	2.53	
1725.952	3.19	
1728.86	-1.78	
1731.767	1.53	
1734.671	-1.12	
1737.573	-0.79	
1740.473	0.21	
1743.37	2.2	
1746.266	1.87	
1749.16	1.53	
1752.052	2.86	
1754.942	-0.12	
1757.829	-3.77	
1760.715	-1.45	
1763.598	-3.11	
1766.48	-1.78	
1769.36	-4.1	
1772.237	-0.12	
1775.112	-6.09	
1777.986	-4.44	
1780.857	1.2	
1783.727	1.53	
1786.594	1.53	
1789.459	-1.12	
1792.323	-2.45	
1795.184	1.53	
1798.043	-0.46	
1800.9	-2.78	
1803.756	0.21	
1806.609	-1.12	
1809.46	0.21	
1812.309	3.19	
1815.157	-1.45	
1818.002	-2.45	
1820.845	-1.45	
1823.686	-4.1	
1826.526	-3.44	
1829.363	-3.11	
1832.198	3.86	
1835.031	2.53	
1837.863	-2.45	
1840.692	-4.1	
1843.519	2.53	
1846.345	-6.43	
1849.168	-0.79	
1851.989	-2.11	
1854.809	-1.45	
1857.626	0.87	
1860.441	2.86	
1863.255	1.87	
1866.066	-3.44	
1868.876	-2.11	
1871.684	-2.11	
1874.489	-4.77	
1877.293	-1.12	
1880.095	-4.1	
1882.894	0.21	
1885.692	-2.78	
1888.488	-8.75	
1891.282	-9.74	
1894.074	-1.12	
1896.864	-2.11	
1899.652	-1.45	
1902.438	-0.79	
1905.222	-4.77	
1908.004	-1.12	
1910.785	-1.12	
1913.563	0.54	
1916.339	-5.76	
1919.114	-0.46	
1921.886	-3.44	
1924.657	-1.12	
1927.426	-0.12	
1930.193	-1.78	
1932.957	1.87	
1935.72	-1.78	
1938.481	-0.46	
1941.24	-5.1	
1943.998	-4.1	
1946.753	-2.78	
1949.506	-1.78	
1952.258	-1.45	
1955.007	-3.77	
1957.755	-4.1	
1960.501	-2.11	
1963.245	-0.79	
1965.986	-0.12	
1968.726	0.21	
1971.465	-5.43	
1974.201	1.87	
1976.935	1.87	
1979.668	-0.79	
1982.398	-0.12	
1985.127	-4.44	
1987.854	-4.44	
1990.579	0.87	
1993.302	-4.77	
1996.023	-3.11	
1998.742	1.87	
2001.46	-3.44	
2004.175	0.87	
2006.889	-1.78	
2009.6	0.21	
2012.31	-0.46	
2015.018	-1.12	
2017.725	-3.11	
2020.429	0.21	
2023.131	-2.11	
2025.832	-3.11	
2028.531	-3.44	
2031.228	-2.45	
2033.923	-0.79	
2036.616	0.87	
2039.307	-2.78	
2041.997	-1.45	
2044.684	0.54	
2047.37	-0.79	
2050.054	-6.09	
2052.736	-0.46	
2055.416	-3.44	
2058.095	0.54	
2060.771	0.21	
2063.446	-0.46	
2066.119	-2.78	
2068.79	-2.11	
2071.459	-3.11	
2074.127	-3.11	
2076.792	-1.45	
2079.456	1.87	
2082.118	-0.12	
2084.778	1.87	
2087.436	1.87	
2090.093	-1.78	
2092.747	-2.45	
2095.4	-2.45	
2098.051	-1.12	
2100.7	-0.46	
2103.348	-3.44	
2105.993	0.87	
2108.637	0.21	
2111.279	-2.45	
2113.919	-0.79	
2116.558	3.52	
2119.194	-4.44	
2121.829	-2.45	
2124.462	2.53	
2127.093	-0.79	
2129.723	-2.11	
2132.35	-0.79	
2134.976	-4.44	
2137.6	3.52	
2140.223	2.86	
2142.843	-6.43	
2145.462	-1.78	
2148.079	1.87	
2150.694	-0.12	
2153.307	-4.77	
2155.919	-2.45	
2158.528	-0.79	
2161.137	-2.78	
2163.743	1.2	
2166.347	-1.45	
2168.95	-3.77	
2171.551	0.21	
2174.15	-4.44	
2176.748	-1.78	
2179.343	0.21	
2181.937	-0.12	
2184.529	-0.79	
2187.12	0.87	
2189.708	-1.12	
2192.295	1.53	
2194.88	-0.46	
2197.464	-0.46	
2200.045	-2.78	
2202.625	-1.45	
2205.203	-2.11	
2207.78	1.87	
2210.355	-1.12	
2212.928	-1.45	
2215.499	-2.45	
2218.068	0.54	
2220.636	2.53	
2223.202	4.85	
2225.766	1.2	
2228.329	-1.45	
2230.889	-1.78	
2233.449	0.54	
2236.006	0.87	
2238.562	-0.12	
2241.115	1.87	
2243.668	-1.45	
2246.218	-1.78	
2248.767	3.19	
2251.314	-0.46	
2253.859	1.53	
2256.403	-1.78	
2258.945	1.2	
2261.485	0.54	
2264.023	-3.77	
2266.56	-0.12	
2269.095	-3.11	
2271.629	3.19	
2274.16	1.53	
2276.69	-2.11	
2279.219	-6.09	
2281.745	-3.77	
2284.27	3.52	
2286.793	-1.45	
2289.315	-0.79	
2291.835	2.2	
2294.353	-0.79	
2296.869	-2.45	
2299.384	1.87	
2301.897	-0.79	
2304.408	-4.44	
2306.918	-2.78	
2309.426	-5.76	
2311.932	-4.77	
2314.437	3.52	
2316.94	3.52	
2319.441	0.21	
2321.941	-3.11	
2324.439	3.19	
2326.935	0.21	
2329.43	-1.45	
2331.923	4.85	
2334.414	-3.77	
2336.904	-0.79	
2339.392	2.2	
2341.878	-1.12	
2344.363	-2.11	
2346.846	-2.45	
2349.328	0.87	
2351.807	-0.79	
2354.285	-1.45	
2356.762	-2.11	
2359.237	-2.11	
2361.71	-2.78	
2364.181	-1.12	
2366.651	1.2	
2369.119	-2.11	
2371.586	-1.78	
2374.051	2.53	
2376.514	-2.45	
2378.976	-0.12	
2381.436	-0.46	
2383.894	-0.46	
2386.351	1.53	
2388.806	-2.45	
2391.259	-2.11	
2393.711	-1.45	
2396.161	-3.44	
2398.61	-3.44	
2401.057	0.54	
2403.502	-3.77	
2405.946	-3.11	
2408.388	-0.79	
2410.829	-2.11	
2413.268	-1.12	
2415.705	-1.12	
2418.141	-0.46	
2420.575	-1.45	
2423.007	-1.45	
2425.438	-2.11	
2427.867	3.52	
2430.295	-2.78	
2432.721	-0.46	
2435.145	-0.12	
2437.568	1.53	
2439.989	-2.78	
2442.409	-1.12	
2444.827	1.87	
2447.243	-0.46	
2449.658	-3.77	
2452.071	-0.12	
2454.483	-0.79	
2456.893	0.87	
2459.302	-1.78	
2461.709	-1.12	
2464.114	2.53	
2466.518	-0.46	
2468.92	-4.77	
2471.32	0.21	
2473.719	-3.11	
2476.117	-6.09	
2478.512	0.54	
2480.907	1.2	
2483.299	-0.12	
2485.691	-0.12	
2488.08	-0.46	
2490.468	-1.45	
2492.854	-0.79	
2495.239	-2.11	
2497.623	-1.45	
2500.004	-2.45	
2502.384	0.21	
2504.763	0.54	
2507.14	1.2	
2509.515	1.87	
2511.889	-4.1	
2514.262	0.21	
2516.633	-0.79	
2519.002	1.2	
2521.369	2.2	
2523.736	0.21	
2526.1	2.2	
2528.463	1.2	
2530.825	0.54	
2533.185	0.87	
2535.543	0.21	
2537.9	-1.78	
2540.255	0.54	
2542.609	2.53	
2544.961	0.21	
2547.312	-1.78	
2549.661	-0.46	
2552.009	1.87	
2554.355	1.87	
2556.7	1.2	
2559.043	-2.45	
2561.384	-0.12	
2563.724	3.52	
2566.063	3.86	
2568.4	-1.12	
2570.735	-1.12	
2573.069	-1.45	
2575.402	1.53	
2577.733	-3.77	
2580.062	-1.45	
2582.39	-1.12	
2584.716	1.2	
2587.041	1.87	
2589.364	-0.12	
2591.686	-2.78	
2594.006	-3.11	
2596.325	-2.11	
2598.643	-0.12	
2600.958	-1.12	
2603.273	1.2	
2605.585	2.53	
2607.897	2.2	
2610.206	0.87	
2612.515	0.54	
2614.822	-1.45	
2617.127	-2.78	
2619.431	2.2	
2621.733	2.2	
2624.034	-1.45	
2626.333	2.53	
2628.631	3.19	
2630.927	-3.11	
2633.222	2.2	
2635.515	0.21	
2637.807	0.21	
2640.098	0.87	
2642.387	2.2	
2644.674	-0.12	
2646.96	1.87	
2649.245	0.54	
2651.528	1.2	
2653.809	-0.46	
2656.089	-1.78	
2658.368	-0.12	
2660.645	5.18	
2662.921	1.2	
2665.195	3.86	
2667.468	4.85	
2669.739	3.19	
2672.009	5.85	
2674.277	5.51	
2676.544	0.87	
2678.809	5.85	
2681.073	5.85	
2683.336	3.52	
2685.597	9.83	
2687.856	8.5	
2690.115	5.18	
2692.371	7.5	
2694.626	8.5	
2696.88	7.84	
2699.133	10.49	
2701.383	13.81	
2703.633	10.16	
2705.881	9.49	
2708.127	13.14	
2710.373	11.15	
2712.616	11.48	
2714.859	15.8	
2717.099	11.82	
2719.339	16.13	
2721.577	12.15	
2723.813	11.15	
2726.048	15.13	
2728.282	13.47	
2730.514	13.81	
2732.745	11.82	
2734.974	13.47	
2737.202	16.13	
2739.428	16.79	
2741.653	13.14	
2743.877	12.81	
2746.099	16.13	
2748.32	16.13	
2750.539	13.47	
2752.757	16.13	
2754.974	16.13	
2757.189	14.8	
2759.403	11.48	
2761.615	19.77	
2763.826	17.78	
2766.035	21.1	
2768.243	14.47	
2770.45	20.77	
2772.655	17.12	
2774.859	16.13	
2777.062	18.78	
2779.263	22.1	
2781.462	21.43	
2783.66	21.76	
2785.857	24.09	
2788.053	21.43	
2790.247	21.1	
2792.439	24.75	
2794.631	23.42	
2796.82	26.41	
2799.009	30.06	
2801.196	30.39	
2803.382	29.06	
2805.566	35.03	
2807.749	35.69	
2809.93	33.37	
2812.11	35.69	
2814.289	38.35	
2816.466	37.02	
2818.642	45.98	
2820.817	41.33	
2822.99	46.31	
2825.162	45.31	
2827.332	46.97	
2829.502	46.31	
2831.669	49.62	
2833.836	53.94	
2836	51.28	
2838.164	48.63	
2840.326	55.26	
2842.487	58.58	
2844.647	62.89	
2846.805	61.23	
2848.961	68.86	
2851.117	72.18	
2853.271	69.52	
2855.423	72.18	
2857.575	71.85	
2859.725	72.18	
2861.873	71.18	
2864.02	80.47	
2866.166	82.46	
2868.311	84.45	
2870.454	85.11	
2872.596	81.8	
2874.736	85.44	
2876.875	85.78	
2879.013	89.76	
2881.149	89.09	
2883.284	89.09	
2885.418	93.07	
2887.551	91.41	
2889.682	94.73	
2891.811	93.74	
2893.94	84.78	
2896.067	84.78	
2898.192	89.09	
2900.317	85.11	
2902.439	82.13	
2904.561	78.81	
2906.681	84.78	
2908.8	81.8	
2910.918	82.13	
2913.034	87.43	
2915.149	81.46	
2917.263	85.11	
2919.375	88.43	
2921.486	86.11	
2923.596	83.79	
2925.704	80.8	
2927.811	83.45	
2929.917	85.44	
2932.021	82.79	
2934.124	85.78	
2936.226	82.13	
2938.327	78.81	
2940.426	79.47	
2942.524	79.47	
2944.62	84.12	
2946.715	74.83	
2948.809	71.18	
2950.902	73.17	
2952.993	71.85	
2955.083	67.53	
2957.171	63.89	
2959.259	58.91	
2961.345	60.9	
2963.429	53.6	
2965.513	49.96	
2967.595	46.31	
2969.676	47.3	
2971.755	44.32	
2973.833	39.67	
2975.91	35.36	
2977.986	32.38	
2980.06	30.06	
2982.133	27.4	
2984.205	22.1	
2986.275	18.12	
2988.345	21.1	
2990.412	20.44	
2992.479	19.77	
2994.544	16.13	
2996.608	12.81	
2998.671	16.13	
3000.732	10.49	
3002.792	10.16	
3004.851	9.83	
3006.909	10.49	
3008.965	6.84	
3011.02	4.52	
3013.074	2.86	
3015.126	6.51	
3017.177	6.84	
3019.227	7.5	
3021.276	4.85	
3023.323	4.19	
3025.369	-1.45	
3027.414	0.54	
3029.458	5.85	
3031.5	1.2	
3033.541	2.86	
3035.581	0.54	
3037.619	1.2	
3039.656	0.54	
3041.692	1.2	
3043.727	4.52	
3045.76	2.53	
3047.793	3.19	
3049.824	1.87	
3051.853	0.21	
3053.882	-0.46	
3055.909	0.21	
