RamanShift:204		
0.351	-102.99	
4.587	-13.06	
8.82	-3.11	
13.049	-6.43	
17.275	-1.12	
21.497	-1.78	
25.716	-1.45	
29.931	1.53	
34.142	-2.45	
38.351	-1.12	
42.555	-0.46	
46.756	-1.12	
50.954	-2.11	
55.148	2.2	
59.339	2.86	
63.527	-1.12	
67.71	-0.79	
71.891	0.54	
76.068	1.53	
80.241	0.21	
84.411	1.87	
88.578	-0.12	
92.741	-0.79	
96.901	2.2	
101.057	0.21	
105.21	3.52	
109.359	0.54	
113.505	5.51	
117.648	9.16	
121.787	7.5	
125.923	5.51	
130.055	6.84	
134.184	11.15	
138.31	17.12	
142.432	16.13	
146.551	17.12	
150.667	21.43	
154.779	23.09	
158.887	29.72	
162.993	26.41	
167.095	34.04	
171.193	35.69	
175.289	37.02	
179.381	41.66	
183.469	45.64	
187.554	46.31	
191.636	50.62	
195.715	51.61	
199.79	48.3	
203.862	53.27	
207.931	55.59	
211.996	51.61	
216.058	56.92	
220.116	62.23	
224.172	61.23	
228.224	60.57	
232.272	62.23	
236.318	57.58	
240.36	63.55	
244.399	55.93	
248.434	60.9	
252.466	60.9	
256.495	66.21	
260.521	70.19	
264.544	57.58	
268.563	66.21	
272.579	65.88	
276.591	62.89	
280.601	65.21	
284.607	64.55	
288.61	64.55	
292.609	68.86	
296.606	64.88	
300.599	59.91	
304.589	64.55	
308.575	68.86	
312.559	67.87	
316.539	63.89	
320.516	69.52	
324.49	75.83	
328.461	71.18	
332.428	73.84	
336.392	79.81	
340.353	82.13	
344.311	84.12	
348.266	77.48	
352.217	74.83	
356.165	60.57	
360.11	59.57	
364.052	56.59	
367.991	53.27	
371.926	45.31	
375.859	45.98	
379.788	43.32	
383.714	41.33	
387.637	45.31	
391.557	43.65	
395.473	32.71	
399.387	38.02	
403.297	39.34	
407.204	35.03	
411.108	34.37	
415.009	32.05	
418.907	31.71	
422.802	35.69	
426.693	36.69	
430.581	38.02	
434.467	38.02	
438.349	39.01	
442.228	38.02	
446.104	35.03	
449.977	38.35	
453.847	40.01	
457.713	42.66	
461.577	44.98	
465.438	54.93	
469.295	60.57	
473.149	63.55	
477.001	60.9	
480.849	54.27	
484.694	46.97	
488.536	40.01	
492.375	41.33	
496.211	39.67	
500.044	42	
503.874	47.3	
507.701	46.64	
511.525	49.96	
515.346	54.27	
519.163	52.94	
522.978	55.93	
526.79	54.27	
530.598	49.62	
534.404	46.31	
538.207	39.67	
542.006	44.65	
545.803	35.03	
549.596	35.69	
553.387	38.02	
557.175	38.02	
560.959	29.39	
564.741	25.41	
568.519	30.06	
572.295	32.71	
576.068	31.38	
579.837	22.76	
583.604	23.75	
587.368	23.42	
591.128	21.43	
594.886	20.77	
598.641	20.44	
602.393	20.44	
606.142	20.77	
609.887	19.78	
613.63	19.44	
617.37	20.77	
621.108	15.8	
624.842	15.46	
628.573	18.78	
632.301	17.45	
636.027	21.43	
639.749	14.8	
643.468	17.12	
647.185	13.47	
650.899	16.13	
654.609	15.8	
658.317	19.44	
662.022	14.47	
665.724	14.14	
669.423	13.14	
673.119	17.12	
676.813	13.14	
680.503	13.14	
684.191	9.49	
687.875	14.14	
691.557	19.44	
695.236	11.82	
698.912	19.78	
702.585	19.44	
706.256	15.13	
709.923	23.42	
713.588	21.76	
717.249	23.09	
720.908	26.08	
724.564	27.73	
728.217	25.74	
731.868	23.42	
735.515	27.4	
739.16	19.44	
742.801	21.76	
746.44	21.1	
750.076	25.08	
753.71	27.07	
757.34	25.08	
760.968	27.73	
764.593	32.38	
768.215	34.04	
771.834	30.06	
775.45	37.02	
779.064	35.36	
782.675	48.63	
786.283	47.63	
789.888	54.6	
793.49	62.89	
797.09	68.53	
800.686	71.51	
804.281	76.16	
807.872	82.46	
811.46	80.8	
815.046	85.11	
818.629	81.13	
822.209	87.77	
825.786	92.74	
829.361	93.74	
832.933	98.38	
836.502	106.01	
840.068	121.6	
843.632	135.53	
847.193	163.05	
850.751	193.57	
854.306	228.4	
857.859	246.31	
861.409	233.04	
864.956	215.79	
868.5	180.3	
872.042	171.35	
875.581	160.07	
879.117	152.11	
882.651	142.49	
886.182	112.97	
889.71	95.73	
893.235	81.46	
896.758	66.54	
900.278	56.26	
903.795	53.94	
907.31	52.61	
910.822	45.98	
914.331	46.97	
917.838	42.33	
921.341	34.37	
924.843	33.04	
928.341	33.7	
931.837	35.36	
935.33	31.05	
938.821	27.73	
942.308	30.06	
945.793	27.73	
949.276	29.72	
952.756	23.75	
956.233	25.74	
959.707	27.73	
963.179	23.75	
966.649	26.74	
970.115	28.07	
973.579	29.39	
977.04	31.38	
980.499	37.68	
983.955	39.67	
987.408	39.34	
990.859	42.99	
994.307	40.01	
997.753	50.95	
1001.196	53.6	
1004.636	67.87	
1008.074	71.85	
1011.509	84.45	
1014.941	99.04	
1018.371	114.3	
1021.798	127.57	
1025.223	133.2	
1028.645	132.54	
1032.064	136.85	
1035.481	132.21	
1038.896	142.16	
1042.307	138.18	
1045.716	145.81	
1049.123	142.16	
1052.527	151.11	
1055.928	159.07	
1059.327	162.06	
1062.723	165.04	
1066.117	151.11	
1069.508	145.14	
1072.897	146.14	
1076.283	136.85	
1079.666	149.12	
1083.047	150.78	
1086.425	150.12	
1089.801	132.21	
1093.174	114.96	
1096.545	102.69	
1099.913	90.75	
1103.279	80.14	
1106.642	73.5	
1110.002	76.49	
1113.36	69.86	
1116.716	74.17	
1120.069	70.52	
1123.419	71.51	
1126.767	81.46	
1130.113	68.53	
1133.456	66.54	
1136.796	63.22	
1140.134	59.91	
1143.47	53.94	
1146.802	50.95	
1150.133	46.97	
1153.461	45.98	
1156.786	38.35	
1160.109	42.66	
1163.43	31.71	
1166.748	36.36	
1170.063	34.7	
1173.376	36.03	
1176.687	30.72	
1179.995	32.71	
1183.3	35.03	
1186.603	36.03	
1189.904	37.35	
1193.202	45.64	
1196.498	50.29	
1199.791	47.63	
1203.082	52.94	
1206.37	49.62	
1209.656	56.26	
1212.94	61.56	
1216.221	60.9	
1219.499	59.57	
1222.775	69.52	
1226.049	74.17	
1229.32	72.84	
1232.589	84.12	
1235.856	83.12	
1239.12	88.43	
1242.381	92.41	
1245.64	94.4	
1248.897	96.39	
1252.151	97.05	
1255.403	99.71	
1258.652	111.31	
1261.9	117.28	
1265.144	114.63	
1268.386	125.58	
1271.626	136.19	
1274.864	129.89	
1278.099	137.85	
1281.331	133.87	
1284.562	142.82	
1287.789	136.85	
1291.015	113.64	
1294.238	116.95	
1297.459	103.69	
1300.677	94.4	
1303.893	86.44	
1307.106	81.46	
1310.318	75.83	
1313.526	76.82	
1316.733	66.87	
1319.937	71.52	
1323.139	70.19	
1326.338	72.51	
1329.535	69.53	
1332.73	71.18	
1335.922	66.21	
1339.112	71.18	
1342.3	61.23	
1345.485	61.23	
1348.668	60.24	
1351.848	67.2	
1355.027	69.86	
1358.203	60.57	
1361.376	62.56	
1364.547	71.85	
1367.716	73.84	
1370.883	74.17	
1374.047	72.18	
1377.209	63.89	
1380.369	75.83	
1383.526	70.85	
1386.681	70.52	
1389.834	67.87	
1392.984	74.5	
1396.132	67.2	
1399.278	67.87	
1402.421	69.19	
1405.562	76.49	
1408.701	74.17	
1411.838	76.16	
1414.972	70.85	
1418.104	80.8	
1421.234	81.47	
1424.361	81.8	
1427.486	85.45	
1430.609	95.4	
1433.73	104.68	
1436.848	122.59	
1439.964	128.56	
1443.078	144.48	
1446.189	168.03	
1449.299	182.29	
1452.405	196.23	
1455.51	203.52	
1458.613	199.21	
1461.713	194.9	
1464.811	192.91	
1467.906	168.03	
1471	155.43	
1474.091	132.87	
1477.18	112.64	
1480.267	89.76	
1483.351	75.49	
1486.433	65.21	
1489.513	48.96	
1492.591	44.98	
1495.666	38.35	
1498.74	36.69	
1501.811	36.36	
1504.879	30.72	
1507.946	29.73	
1511.01	25.41	
1514.073	27.4	
1517.132	24.42	
1520.19	30.06	
1523.246	16.13	
1526.299	28.07	
1529.35	25.41	
1532.399	23.76	
1535.446	17.45	
1538.49	17.45	
1541.532	17.79	
1544.572	22.76	
1547.61	19.11	
1550.646	19.78	
1553.68	19.11	
1556.711	14.8	
1559.74	14.14	
1562.767	18.12	
1565.792	21.1	
1568.814	13.81	
1571.835	15.13	
1574.853	19.44	
1577.869	17.79	
1580.883	12.48	
1583.895	15.46	
1586.904	18.12	
1589.912	13.14	
1592.917	18.45	
1595.92	17.45	
1598.921	19.11	
1601.92	8.83	
1604.917	10.49	
1607.911	12.15	
1610.903	12.81	
1613.894	19.44	
1616.882	15.8	
1619.868	16.46	
1622.851	10.16	
1625.833	16.79	
1628.812	16.46	
1631.79	15.8	
1634.765	9.49	
1637.738	16.46	
1640.709	10.82	
1643.678	15.13	
1646.645	16.46	
1649.609	12.81	
1652.572	14.14	
1655.532	13.47	
1658.49	14.8	
1661.447	13.14	
1664.401	6.51	
1667.353	8.17	
1670.302	12.15	
1673.25	7.5	
1676.196	9.16	
1679.139	11.48	
1682.081	5.51	
1685.02	10.49	
1687.957	13.14	
1690.893	7.84	
1693.826	7.5	
1696.757	16.79	
1699.686	8.17	
1702.612	3.86	
1705.537	3.86	
1708.46	5.85	
1711.38	7.5	
1714.299	7.84	
1717.215	11.15	
1720.13	6.84	
1723.042	7.5	
1725.952	15.13	
1728.86	5.85	
1731.767	8.17	
1734.671	4.85	
1737.573	3.52	
1740.473	5.51	
1743.37	9.16	
1746.266	6.18	
1749.16	3.86	
1752.052	8.17	
1754.942	9.16	
1757.829	8.5	
1760.715	6.18	
1763.598	3.86	
1766.48	5.85	
1769.36	3.52	
1772.237	2.86	
1775.112	3.86	
1777.986	3.86	
1780.857	5.51	
1783.727	5.85	
1786.594	11.15	
1789.459	4.85	
1792.323	7.5	
1795.184	4.52	
1798.043	6.51	
1800.9	5.85	
1803.756	6.18	
1806.609	7.17	
1809.46	9.49	
1812.309	4.19	
1815.157	4.85	
1818.002	3.19	
1820.845	1.2	
1823.686	2.2	
1826.526	4.52	
1829.363	3.86	
1832.198	7.84	
1835.031	3.86	
1837.863	5.51	
1840.692	2.86	
1843.519	5.18	
1846.345	3.52	
1849.168	7.5	
1851.989	6.51	
1854.809	3.86	
1857.626	4.85	
1860.441	5.85	
1863.255	7.5	
1866.066	2.53	
1868.876	6.51	
1871.684	6.84	
1874.489	2.53	
1877.293	7.5	
1880.095	2.2	
1882.894	2.86	
1885.692	1.87	
1888.488	-0.79	
1891.282	-1.45	
1894.074	1.2	
1896.864	1.87	
1899.652	4.19	
1902.438	8.17	
1905.222	6.18	
1908.004	3.19	
1910.785	7.17	
1913.563	4.52	
1916.339	1.87	
1919.114	5.51	
1921.886	5.51	
1924.657	1.2	
1927.426	3.86	
1930.193	2.86	
1932.957	1.2	
1935.72	0.87	
1938.481	4.52	
1941.24	1.53	
1943.998	-1.45	
1946.753	2.53	
1949.506	0.87	
1952.258	4.85	
1955.007	1.87	
1957.755	3.19	
1960.501	3.86	
1963.245	7.17	
1965.986	6.84	
1968.726	0.21	
1971.465	3.52	
1974.201	5.85	
1976.935	5.18	
1979.668	0.21	
1982.398	5.18	
1985.127	0.21	
1987.854	4.85	
1990.579	2.53	
1993.302	2.2	
1996.023	1.53	
1998.742	6.18	
2001.46	4.52	
2004.175	-0.46	
2006.889	4.19	
2009.6	1.2	
2012.31	-0.46	
2015.018	1.53	
2017.725	-0.12	
2020.429	1.87	
2023.131	3.52	
2025.832	2.86	
2028.531	-0.46	
2031.228	-0.46	
2033.923	1.87	
2036.616	3.52	
2039.307	0.54	
2041.997	1.53	
2044.684	2.86	
2047.37	1.2	
2050.054	-0.12	
2052.736	0.87	
2055.416	-1.78	
2058.095	3.86	
2060.771	1.87	
2063.446	0.21	
2066.119	3.86	
2068.79	0.21	
2071.459	-2.11	
2074.127	-2.78	
2076.792	1.53	
2079.456	3.19	
2082.118	2.2	
2084.778	5.18	
2087.436	6.18	
2090.093	0.54	
2092.747	-0.46	
2095.4	0.54	
2098.051	1.53	
2100.7	0.87	
2103.348	1.2	
2105.993	1.2	
2108.637	2.2	
2111.279	-1.12	
2113.919	3.86	
2116.558	3.19	
2119.194	-0.12	
2121.829	-0.79	
2124.462	1.2	
2127.093	3.19	
2129.723	-0.46	
2132.35	1.2	
2134.976	-1.45	
2137.6	5.18	
2140.223	2.86	
2142.843	-2.11	
2145.462	2.86	
2148.079	-1.12	
2150.694	2.53	
2153.307	-1.12	
2155.919	-0.12	
2158.528	-1.78	
2161.137	2.2	
2163.743	-3.11	
2166.347	1.87	
2168.95	0.54	
2171.551	3.52	
2174.15	-1.45	
2176.748	0.54	
2179.343	-0.79	
2181.937	1.53	
2184.529	-1.78	
2187.12	-1.12	
2189.708	-2.11	
2192.295	3.19	
2194.88	3.52	
2197.464	3.52	
2200.045	-1.12	
2202.625	1.53	
2205.203	0.87	
2207.78	3.52	
2210.355	1.53	
2212.928	-0.46	
2215.499	2.86	
2218.068	2.86	
2220.636	5.18	
2223.202	5.18	
2225.766	5.18	
2228.329	2.86	
2230.889	4.85	
2233.449	1.2	
2236.006	5.85	
2238.562	-0.12	
2241.115	5.18	
2243.668	0.87	
2246.218	-1.45	
2248.767	5.18	
2251.314	2.2	
2253.859	0.21	
2256.403	2.53	
2258.945	4.19	
2261.485	3.86	
2264.023	0.21	
2266.56	3.19	
2269.095	0.21	
2271.629	3.86	
2274.16	4.52	
2276.69	-0.79	
2279.219	-2.45	
2281.745	-0.46	
2284.27	3.52	
2286.793	2.86	
2289.315	-2.11	
2291.835	4.19	
2294.353	-0.79	
2296.869	-1.78	
2299.384	3.86	
2301.897	1.53	
2304.408	-3.11	
2306.918	0.21	
2309.426	-3.11	
2311.932	-0.46	
2314.437	6.51	
2316.94	4.19	
2319.441	2.86	
2321.941	-1.45	
2324.439	2.86	
2326.935	2.86	
2329.43	1.2	
2331.923	1.2	
2334.414	0.87	
2336.904	0.87	
2339.392	0.21	
2341.878	2.53	
2344.363	-0.79	
2346.846	-0.12	
2349.328	2.53	
2351.807	1.87	
2354.285	0.87	
2356.762	4.19	
2359.237	-1.78	
2361.71	-1.12	
2364.181	2.2	
2366.651	1.2	
2369.119	1.53	
2371.586	4.19	
2374.051	0.54	
2376.514	0.87	
2378.976	1.87	
2381.436	0.87	
2383.894	-0.12	
2386.351	0.87	
2388.806	-1.12	
2391.259	0.54	
2393.711	1.2	
2396.161	0.54	
2398.61	2.86	
2401.057	1.87	
2403.502	-1.78	
2405.946	-1.12	
2408.388	0.54	
2410.829	3.52	
2413.268	0.21	
2415.705	2.2	
2418.141	-1.45	
2420.575	-0.12	
2423.007	4.52	
2425.438	0.21	
2427.867	5.18	
2430.295	-3.44	
2432.721	-0.46	
2435.145	2.86	
2437.568	1.53	
2439.989	-0.12	
2442.409	1.53	
2444.827	1.87	
2447.243	1.53	
2449.658	1.53	
2452.071	1.87	
2454.483	1.53	
2456.893	4.85	
2459.302	0.21	
2461.709	-0.46	
2464.114	0.87	
2466.518	1.87	
2468.92	-1.12	
2471.32	0.54	
2473.719	1.53	
2476.117	-2.78	
2478.512	3.52	
2480.907	3.19	
2483.299	1.2	
2485.691	-0.79	
2488.08	1.2	
2490.468	2.2	
2492.854	-0.12	
2495.239	-0.79	
2497.623	1.53	
2500.004	0.87	
2502.384	0.87	
2504.763	0.87	
2507.14	0.54	
2509.515	4.52	
2511.889	-1.12	
2514.262	-0.12	
2516.633	0.54	
2519.002	5.18	
2521.369	1.2	
2523.736	0.54	
2526.1	2.53	
2528.463	2.53	
2530.825	3.86	
2533.185	2.2	
2535.543	3.19	
2537.9	-1.12	
2540.255	0.54	
2542.609	0.21	
2544.961	2.53	
2547.312	0.21	
2549.661	2.53	
2552.009	1.2	
2554.355	0.87	
2556.7	0.87	
2559.043	-3.77	
2561.384	1.53	
2563.724	2.53	
2566.063	4.85	
2568.4	-0.12	
2570.735	-1.45	
2573.069	-1.45	
2575.402	4.52	
2577.733	1.87	
2580.062	0.54	
2582.39	-0.12	
2584.716	3.19	
2587.041	2.2	
2589.364	2.2	
2591.686	0.54	
2594.006	-1.45	
2596.325	1.2	
2598.643	0.21	
2600.958	4.52	
2603.273	2.86	
2605.585	4.85	
2607.897	1.53	
2610.206	1.53	
2612.515	2.2	
2614.822	2.53	
2617.127	0.87	
2619.431	4.52	
2621.733	4.85	
2624.034	0.21	
2626.333	0.54	
2628.631	4.19	
2630.927	-0.12	
2633.222	0.87	
2635.515	-0.12	
2637.807	0.87	
2640.098	3.52	
2642.387	5.18	
2644.674	0.87	
2646.96	4.52	
2649.245	3.52	
2651.528	4.52	
2653.809	0.54	
2656.089	2.86	
2658.368	2.86	
2660.645	3.52	
2662.921	4.19	
2665.195	4.52	
2667.468	8.5	
2669.739	2.86	
2672.009	3.19	
2674.277	3.86	
2676.544	3.86	
2678.809	4.85	
2681.073	7.5	
2683.336	10.49	
2685.597	11.15	
2687.856	10.82	
2690.115	10.16	
2692.371	9.16	
2694.626	10.82	
2696.88	8.17	
2699.133	12.81	
2701.383	15.46	
2703.633	13.81	
2705.881	12.81	
2708.127	10.82	
2710.373	13.47	
2712.616	15.13	
2714.859	18.12	
2717.099	18.78	
2719.339	15.8	
2721.577	16.13	
2723.813	16.13	
2726.048	15.8	
2728.282	15.8	
2730.514	15.13	
2732.745	14.14	
2734.974	14.8	
2737.202	17.45	
2739.428	17.78	
2741.653	16.46	
2743.877	16.13	
2746.099	18.78	
2748.32	22.43	
2750.539	13.14	
2752.757	16.79	
2754.974	18.12	
2757.189	23.09	
2759.403	19.77	
2761.615	26.41	
2763.826	22.76	
2766.035	23.42	
2768.243	18.45	
2770.45	21.76	
2772.655	25.41	
2774.859	22.43	
2777.062	20.44	
2779.263	25.41	
2781.462	23.42	
2783.66	25.08	
2785.857	25.41	
2788.053	33.37	
2790.247	31.71	
2792.439	31.38	
2794.631	28.4	
2796.82	35.03	
2799.009	36.69	
2801.196	32.71	
2803.382	31.71	
2805.566	40.34	
2807.749	36.03	
2809.93	40.67	
2812.11	40.67	
2814.289	42.66	
2816.466	43.32	
2818.642	52.61	
2820.817	51.95	
2822.99	49.96	
2825.162	50.95	
2827.332	52.28	
2829.502	53.6	
2831.669	54.6	
2833.836	56.92	
2836	58.25	
2838.164	65.88	
2840.326	66.54	
2842.487	73.5	
2844.647	70.19	
2846.805	68.53	
2848.961	78.15	
2851.117	78.15	
2853.271	83.12	
2855.423	84.78	
2857.575	87.43	
2859.725	85.11	
2861.873	91.08	
2864.02	101.03	
2866.166	95.06	
2868.311	107.33	
2870.454	101.7	
2872.596	92.74	
2874.736	106.67	
2876.875	96.72	
2879.013	105.01	
2881.149	108	
2883.284	106.67	
2885.418	109.32	
2887.551	106.01	
2889.682	109.99	
2891.811	103.35	
2893.94	109.99	
2896.067	102.36	
2898.192	100.37	
2900.317	98.38	
2902.439	94.73	
2904.561	92.41	
2906.681	97.38	
2908.8	98.05	
2910.918	99.7	
2913.034	98.38	
2915.149	96.06	
2917.263	101.69	
2919.375	104.02	
2921.486	100.37	
2923.596	95.06	
2925.704	98.05	
2927.811	97.71	
2929.917	97.05	
2932.021	94.4	
2934.124	90.42	
2936.226	98.38	
2938.327	92.08	
2940.426	91.75	
2942.524	91.41	
2944.62	93.73	
2946.715	87.43	
2948.809	85.77	
2950.902	82.13	
2952.993	80.14	
2955.083	74.83	
2957.171	71.18	
2959.259	66.54	
2961.345	68.53	
2963.429	59.91	
2965.513	63.89	
2967.595	50.95	
2969.676	51.28	
2971.755	47.97	
2973.833	44.98	
2975.91	39.67	
2977.986	35.03	
2980.06	36.03	
2982.133	29.72	
2984.205	23.09	
2986.275	22.76	
2988.345	26.74	
2990.412	23.42	
2992.479	19.77	
2994.544	19.77	
2996.608	14.8	
2998.671	14.47	
3000.732	15.13	
3002.792	9.83	
3004.851	8.17	
3006.909	12.81	
3008.965	10.16	
3011.02	3.19	
3013.074	7.17	
3015.126	8.17	
3017.177	10.16	
3019.227	3.52	
3021.276	7.5	
3023.323	3.86	
3025.369	3.52	
3027.414	5.85	
3029.458	5.51	
3031.5	2.2	
3033.541	2.53	
3035.581	5.51	
3037.619	1.2	
3039.656	3.52	
3041.692	2.2	
3043.727	5.18	
3045.76	3.86	
3047.793	1.53	
3049.824	4.19	
3051.853	-1.45	
3053.882	3.86	
3055.909	0.21	
