RamanShift:204		
0.351	215.28	
4.587	45.03	
8.82	17.83	
13.049	15.17	
17.275	7.88	
21.497	6.88	
25.716	5.89	
29.931	7.21	
34.142	3.57	
38.351	2.9	
42.555	5.22	
46.756	-0.41	
50.954	3.23	
55.148	4.23	
59.339	4.89	
63.527	-0.41	
67.71	0.91	
71.891	3.9	
76.068	1.58	
80.241	1.58	
84.411	2.57	
88.578	1.91	
92.741	3.9	
96.901	5.56	
101.057	4.89	
105.21	4.23	
109.359	3.23	
113.505	7.21	
117.648	11.52	
121.787	5.56	
125.923	11.86	
130.055	9.54	
134.184	11.19	
138.31	16.17	
142.432	19.15	
146.551	22.14	
150.667	24.79	
154.779	23.13	
158.887	35.4	
162.993	34.08	
167.095	37.39	
171.193	40.05	
175.289	41.04	
179.381	50.99	
183.469	49.67	
187.554	50	
191.636	55.64	
195.715	62.93	
199.79	64.26	
203.862	62.27	
207.931	65.25	
211.996	66.91	
216.058	72.88	
220.116	70.23	
224.172	70.56	
228.224	80.18	
232.272	80.84	
236.318	79.18	
240.36	87.14	
244.399	78.19	
248.434	83.16	
252.466	82.83	
256.495	87.81	
260.521	92.45	
264.544	95.77	
268.563	89.8	
272.579	95.44	
276.591	93.78	
280.601	96.43	
284.607	97.09	
288.61	94.44	
292.609	95.44	
296.606	95.1	
300.599	86.15	
304.589	94.77	
308.575	93.45	
312.559	87.14	
316.539	87.14	
320.516	83.83	
324.49	88.47	
328.461	82.83	
332.428	84.49	
336.392	90.13	
340.353	84.16	
344.311	82.5	
348.266	83.83	
352.217	72.88	
356.165	70.56	
360.11	65.59	
364.052	59.28	
367.991	56.3	
371.926	53.65	
375.859	53.31	
379.788	51.99	
383.714	50.99	
387.637	52.98	
391.557	48.67	
395.473	45.35	
399.387	48.34	
403.297	49.67	
407.204	48.01	
411.108	44.36	
415.009	45.69	
418.907	42.7	
422.802	40.71	
426.693	41.37	
430.581	44.69	
434.467	38.06	
438.349	46.68	
442.228	44.03	
446.104	37.39	
449.977	45.69	
453.847	46.35	
457.713	45.02	
461.577	42.37	
465.438	46.02	
469.295	51.32	
473.149	48.67	
477.001	54.97	
480.849	48.01	
484.694	50.66	
488.536	46.02	
492.375	49.33	
496.211	48.01	
500.044	50	
503.874	52.98	
507.701	55.64	
511.525	57.96	
515.346	60.28	
519.163	60.61	
522.978	54.64	
526.79	59.95	
530.598	58.95	
534.404	54.31	
538.207	49	
542.006	50.66	
545.803	43.7	
549.596	44.69	
553.387	45.02	
557.175	44.36	
560.959	39.72	
564.741	37.73	
568.519	39.72	
572.295	34.74	
576.068	33.75	
579.837	27.44	
583.604	28.77	
587.368	28.44	
591.128	31.76	
594.886	29.77	
598.641	24.79	
602.393	22.47	
606.142	22.47	
609.887	18.49	
613.63	25.45	
617.37	21.14	
621.108	22.8	
624.842	23.13	
628.573	20.15	
632.301	20.81	
636.027	21.47	
639.749	20.15	
643.468	25.45	
647.185	18.82	
650.899	19.15	
654.609	16.17	
658.317	21.81	
662.022	18.49	
665.724	14.51	
669.423	19.48	
673.119	17.83	
676.813	11.86	
680.503	16.83	
684.191	18.16	
687.875	18.16	
691.557	20.15	
695.236	16.83	
698.912	17.83	
702.585	19.82	
706.256	19.15	
709.923	18.49	
713.588	23.8	
717.249	17.83	
720.908	20.15	
724.564	23.8	
728.217	22.14	
731.868	22.14	
735.515	27.44	
739.16	20.81	
742.801	20.48	
746.44	31.42	
750.076	25.12	
753.71	30.1	
757.34	34.08	
760.968	35.4	
764.593	40.38	
768.215	47.01	
771.834	45.69	
775.45	55.97	
779.064	56.3	
782.675	75.87	
786.283	78.52	
789.888	94.77	
793.49	106.38	
797.09	114.67	
800.686	116.99	
804.281	117.66	
807.872	124.95	
811.46	126.61	
815.046	126.28	
818.629	131.92	
822.209	134.9	
825.786	136.89	
829.361	136.56	
832.933	137.56	
836.502	139.22	
840.068	139.22	
843.632	134.9	
847.193	139.88	
850.751	154.47	
854.306	164.09	
857.859	169.73	
861.409	173.38	
864.956	169.07	
868.5	158.45	
872.042	155.47	
875.581	159.12	
879.117	161.44	
882.651	155.8	
886.182	137.56	
889.71	116.66	
893.235	95.1	
896.758	80.84	
900.278	65.25	
903.795	61.94	
907.31	60.94	
910.822	61.27	
914.331	55.3	
917.838	56.3	
921.341	50	
924.843	45.02	
928.341	47.34	
931.837	45.35	
935.33	38.06	
938.821	39.05	
942.308	41.71	
945.793	31.76	
949.276	34.08	
952.756	32.75	
956.233	34.41	
959.707	32.75	
963.179	33.41	
966.649	34.41	
970.115	35.4	
973.579	38.06	
977.04	41.37	
980.499	44.03	
983.955	46.68	
987.408	47.68	
990.859	55.97	
994.307	60.28	
997.753	59.95	
1001.196	69.23	
1004.636	76.86	
1008.074	85.49	
1011.509	88.14	
1014.941	97.76	
1018.371	106.05	
1021.798	117.99	
1025.223	125.29	
1028.645	129.6	
1032.064	134.57	
1035.481	135.57	
1038.896	142.53	
1042.307	142.2	
1045.716	145.85	
1049.123	144.52	
1052.527	155.8	
1055.928	154.14	
1059.327	154.47	
1062.723	155.8	
1066.117	152.48	
1069.508	144.85	
1072.897	144.19	
1076.283	140.21	
1079.666	143.53	
1083.047	141.87	
1086.425	140.87	
1089.801	134.9	
1093.174	127.61	
1096.545	113.35	
1099.913	110.36	
1103.279	107.38	
1106.642	104.06	
1110.002	112.02	
1113.36	108.04	
1116.716	119.98	
1120.069	113.35	
1123.419	113.01	
1126.767	120.97	
1130.113	110.36	
1133.456	108.04	
1136.796	106.71	
1140.134	88.47	
1143.47	84.49	
1146.802	80.51	
1150.133	60.28	
1153.461	56.3	
1156.786	54.97	
1160.109	51.32	
1163.43	46.02	
1166.748	50	
1170.063	51.99	
1173.376	48.67	
1176.687	46.35	
1179.995	46.68	
1183.3	49.33	
1186.603	48.67	
1189.904	50	
1193.202	62.27	
1196.498	63.6	
1199.791	64.26	
1203.082	69.9	
1206.37	62.6	
1209.656	68.9	
1212.94	76.2	
1216.221	79.52	
1219.499	83.5	
1222.775	94.44	
1226.049	106.38	
1229.32	106.05	
1232.589	114.34	
1235.856	119.98	
1239.12	122.3	
1242.381	122.63	
1245.64	131.26	
1248.897	127.28	
1252.151	133.91	
1255.403	125.95	
1258.652	140.54	
1261.9	144.19	
1265.144	150.49	
1268.386	164.09	
1271.626	176.03	
1274.864	184.32	
1278.099	182.33	
1281.331	181.01	
1284.562	182.67	
1287.789	167.08	
1291.015	158.45	
1294.238	151.49	
1297.459	140.21	
1300.677	136.56	
1303.893	117.66	
1307.106	115.01	
1310.318	103.4	
1313.526	99.08	
1316.733	91.46	
1319.937	95.77	
1323.139	95.44	
1326.338	96.76	
1329.535	89.14	
1332.73	89.8	
1335.922	91.79	
1339.112	93.45	
1342.3	87.48	
1345.485	86.15	
1348.668	93.12	
1351.848	98.09	
1355.027	96.43	
1358.203	88.14	
1361.376	96.43	
1364.547	94.11	
1367.716	105.39	
1370.883	91.13	
1374.047	101.41	
1377.209	88.8	
1380.369	105.72	
1383.526	104.06	
1386.681	106.05	
1389.834	102.4	
1392.984	99.75	
1396.132	99.42	
1399.278	107.38	
1402.421	107.05	
1405.562	111.69	
1408.701	107.71	
1411.838	114.34	
1414.972	111.36	
1418.104	115.67	
1421.234	123.63	
1424.361	126.95	
1427.486	127.61	
1430.609	143.53	
1433.73	154.47	
1436.848	167.74	
1439.964	177.69	
1443.078	194.28	
1446.189	199.25	
1449.299	211.19	
1452.405	217.16	
1455.51	221.81	
1458.613	230.43	
1461.713	225.12	
1464.811	227.78	
1467.906	206.88	
1471	204.56	
1474.091	169.73	
1477.18	156.8	
1480.267	129.27	
1483.351	111.69	
1486.433	91.79	
1489.513	79.52	
1492.591	71.89	
1495.666	68.57	
1498.74	64.92	
1501.811	63.26	
1504.879	53.98	
1507.946	55.64	
1511.01	55.3	
1514.073	51.32	
1517.132	50.66	
1520.19	47.68	
1523.246	44.69	
1526.299	49.33	
1529.35	46.02	
1532.399	45.35	
1535.446	40.05	
1538.49	42.7	
1541.532	41.37	
1544.572	41.37	
1547.61	41.71	
1550.646	41.37	
1553.68	40.71	
1556.711	34.74	
1559.74	31.09	
1562.767	36.4	
1565.792	38.06	
1568.814	40.38	
1571.835	38.72	
1574.853	32.42	
1577.869	39.05	
1580.883	34.08	
1583.895	35.4	
1586.904	31.42	
1589.912	31.42	
1592.917	40.71	
1595.92	34.74	
1598.921	34.74	
1601.92	33.41	
1604.917	34.41	
1607.911	30.1	
1610.903	34.41	
1613.894	37.39	
1616.882	31.76	
1619.868	33.75	
1622.851	28.44	
1625.833	28.44	
1628.812	26.78	
1631.79	31.76	
1634.765	33.08	
1637.738	33.41	
1640.709	30.76	
1643.678	30.43	
1646.645	28.44	
1649.609	34.08	
1652.572	29.43	
1655.532	30.76	
1658.49	31.76	
1661.447	29.43	
1664.401	27.44	
1667.353	28.11	
1670.302	24.46	
1673.25	21.81	
1676.196	26.12	
1679.139	27.78	
1682.081	23.46	
1685.02	29.43	
1687.957	26.12	
1690.893	21.14	
1693.826	22.47	
1696.757	27.78	
1699.686	19.48	
1702.612	19.48	
1705.537	21.14	
1708.46	24.13	
1711.38	23.8	
1714.299	18.16	
1717.215	23.8	
1720.13	23.46	
1723.042	23.8	
1725.952	24.13	
1728.86	22.14	
1731.767	19.82	
1734.671	17.16	
1737.573	19.15	
1740.473	22.47	
1743.37	20.15	
1746.266	21.47	
1749.16	21.81	
1752.052	17.49	
1754.942	20.15	
1757.829	20.81	
1760.715	17.83	
1763.598	15.5	
1766.48	19.15	
1769.36	18.16	
1772.237	18.82	
1775.112	18.82	
1777.986	18.82	
1780.857	21.14	
1783.727	20.15	
1786.594	20.15	
1789.459	14.18	
1792.323	17.49	
1795.184	20.48	
1798.043	20.15	
1800.9	17.16	
1803.756	19.82	
1806.609	17.83	
1809.46	18.49	
1812.309	18.49	
1815.157	22.47	
1818.002	19.15	
1820.845	13.52	
1823.686	19.15	
1826.526	15.5	
1829.363	16.5	
1832.198	19.48	
1835.031	18.16	
1837.863	13.18	
1840.692	18.82	
1843.519	17.49	
1846.345	14.84	
1849.168	18.49	
1851.989	17.83	
1854.809	18.16	
1857.626	18.16	
1860.441	15.5	
1863.255	18.16	
1866.066	13.18	
1868.876	21.14	
1871.684	16.5	
1874.489	14.18	
1877.293	18.16	
1880.095	14.18	
1882.894	18.49	
1885.692	14.84	
1888.488	11.53	
1891.282	7.55	
1894.074	15.5	
1896.864	15.84	
1899.652	14.84	
1902.438	18.49	
1905.222	18.49	
1908.004	15.5	
1910.785	15.17	
1913.563	14.84	
1916.339	12.52	
1919.114	14.84	
1921.886	13.85	
1924.657	14.18	
1927.426	13.85	
1930.193	15.5	
1932.957	14.18	
1935.72	13.18	
1938.481	13.85	
1941.24	12.85	
1943.998	9.54	
1946.753	11.53	
1949.506	11.19	
1952.258	11.86	
1955.007	10.53	
1957.755	8.21	
1960.501	9.87	
1963.245	11.86	
1965.986	13.85	
1968.726	12.52	
1971.465	10.2	
1974.201	12.85	
1976.935	12.85	
1979.668	9.54	
1982.398	14.51	
1985.127	9.54	
1987.854	8.87	
1990.579	11.19	
1993.302	6.88	
1996.023	10.86	
1998.742	11.19	
2001.46	7.21	
2004.175	11.53	
2006.889	8.21	
2009.6	9.2	
2012.31	12.85	
2015.018	11.19	
2017.725	7.55	
2020.429	9.87	
2023.131	5.56	
2025.832	8.21	
2028.531	9.87	
2031.228	6.88	
2033.923	9.54	
2036.616	12.19	
2039.307	7.55	
2041.997	7.21	
2044.684	8.21	
2047.37	6.55	
2050.054	6.55	
2052.736	6.22	
2055.416	4.56	
2058.095	7.21	
2060.771	8.54	
2063.446	6.88	
2066.119	5.56	
2068.79	8.21	
2071.459	3.57	
2074.127	5.22	
2076.792	6.55	
2079.456	7.88	
2082.118	6.22	
2084.778	11.52	
2087.436	8.87	
2090.093	7.88	
2092.747	5.22	
2095.4	5.89	
2098.051	4.23	
2100.7	6.88	
2103.348	4.56	
2105.993	8.21	
2108.637	6.88	
2111.279	4.23	
2113.919	2.57	
2116.558	5.56	
2119.194	6.88	
2121.829	5.56	
2124.462	7.55	
2127.093	5.89	
2129.723	5.56	
2132.35	7.21	
2134.976	5.22	
2137.6	10.2	
2140.223	11.52	
2142.843	4.23	
2145.462	7.88	
2148.079	8.87	
2150.694	5.56	
2153.307	5.56	
2155.919	8.21	
2158.528	5.22	
2161.137	2.9	
2163.743	7.21	
2166.347	4.89	
2168.95	1.91	
2171.551	7.21	
2174.15	2.9	
2176.748	5.56	
2179.343	4.23	
2181.937	3.23	
2184.529	5.22	
2187.12	2.24	
2189.708	2.57	
2192.295	5.56	
2194.88	8.54	
2197.464	7.55	
2200.045	5.89	
2202.625	6.88	
2205.203	7.21	
2207.78	7.55	
2210.355	7.55	
2212.928	5.22	
2215.499	4.23	
2218.068	6.88	
2220.636	8.21	
2223.202	10.2	
2225.766	11.19	
2228.329	4.56	
2230.889	5.22	
2233.449	5.56	
2236.006	9.87	
2238.562	5.22	
2241.115	7.55	
2243.668	5.22	
2246.218	4.89	
2248.767	9.2	
2251.314	6.55	
2253.859	6.55	
2256.403	5.22	
2258.945	7.55	
2261.485	7.21	
2264.023	6.22	
2266.56	6.55	
2269.095	5.89	
2271.629	8.54	
2274.16	7.88	
2276.69	4.56	
2279.219	2.9	
2281.745	3.57	
2284.27	9.87	
2286.793	7.55	
2289.315	2.9	
2291.835	9.54	
2294.353	6.22	
2296.869	5.22	
2299.384	5.56	
2301.897	2.9	
2304.408	-0.41	
2306.918	6.22	
2309.426	1.58	
2311.932	3.23	
2314.437	8.87	
2316.94	7.88	
2319.441	6.22	
2321.941	4.23	
2324.439	5.89	
2326.935	4.89	
2329.43	4.89	
2331.923	7.88	
2334.414	3.57	
2336.904	5.56	
2339.392	6.88	
2341.878	8.21	
2344.363	3.23	
2346.846	3.23	
2349.328	8.21	
2351.807	5.22	
2354.285	2.57	
2356.762	5.89	
2359.237	4.56	
2361.71	4.23	
2364.181	7.55	
2366.651	10.2	
2369.119	4.23	
2371.586	6.88	
2374.051	5.89	
2376.514	5.89	
2378.976	7.88	
2381.436	4.23	
2383.894	5.89	
2386.351	4.23	
2388.806	5.89	
2391.259	3.57	
2393.711	4.23	
2396.161	2.9	
2398.61	3.9	
2401.057	3.57	
2403.502	2.9	
2405.946	4.89	
2408.388	7.55	
2410.829	7.21	
2413.268	2.57	
2415.705	5.56	
2418.141	7.55	
2420.575	1.91	
2423.007	8.87	
2425.438	3.9	
2427.867	8.21	
2430.295	-0.08	
2432.721	2.9	
2435.145	7.55	
2437.568	2.57	
2439.989	3.23	
2442.409	3.9	
2444.827	9.2	
2447.243	5.22	
2449.658	1.58	
2452.071	3.9	
2454.483	5.22	
2456.893	3.9	
2459.302	2.57	
2461.709	5.22	
2464.114	8.21	
2466.518	4.23	
2468.92	0.58	
2471.32	7.55	
2473.719	1.24	
2476.117	2.24	
2478.512	6.55	
2480.907	7.55	
2483.299	4.89	
2485.691	3.9	
2488.08	5.56	
2490.468	6.55	
2492.854	2.9	
2495.239	4.56	
2497.623	4.23	
2500.004	5.89	
2502.384	5.22	
2504.763	2.24	
2507.14	6.88	
2509.515	8.87	
2511.889	5.22	
2514.262	5.22	
2516.633	5.22	
2519.002	6.22	
2521.369	5.22	
2523.736	5.89	
2526.1	8.54	
2528.463	6.55	
2530.825	7.21	
2533.185	6.55	
2535.543	6.88	
2537.9	6.22	
2540.255	5.89	
2542.609	8.21	
2544.961	6.55	
2547.312	3.9	
2549.661	5.22	
2552.009	5.22	
2554.355	6.55	
2556.7	4.56	
2559.043	1.91	
2561.384	5.56	
2563.724	7.55	
2566.063	11.19	
2568.4	2.24	
2570.735	1.24	
2573.069	1.58	
2575.402	7.88	
2577.733	3.57	
2580.062	3.9	
2582.39	4.23	
2584.716	8.87	
2587.041	5.56	
2589.364	3.57	
2591.686	4.89	
2594.006	1.91	
2596.325	4.23	
2598.643	3.23	
2600.958	5.56	
2603.273	5.22	
2605.585	6.88	
2607.897	7.21	
2610.206	2.57	
2612.515	5.56	
2614.822	5.22	
2617.127	1.58	
2619.431	5.56	
2621.733	4.23	
2624.034	4.56	
2626.333	5.22	
2628.631	8.87	
2630.927	1.24	
2633.222	3.9	
2635.515	3.57	
2637.807	6.55	
2640.098	6.55	
2642.387	11.86	
2644.674	5.22	
2646.96	7.55	
2649.245	6.88	
2651.528	5.89	
2653.809	3.9	
2656.089	4.23	
2658.368	6.55	
2660.645	11.19	
2662.921	9.2	
2665.195	8.54	
2667.468	9.87	
2669.739	9.87	
2672.009	7.88	
2674.277	7.88	
2676.544	7.88	
2678.809	12.52	
2681.073	13.51	
2683.336	11.52	
2685.597	15.84	
2687.856	15.17	
2690.115	16.83	
2692.371	14.18	
2694.626	16.5	
2696.88	16.83	
2699.133	22.14	
2701.383	21.47	
2703.633	20.15	
2705.881	21.81	
2708.127	19.15	
2710.373	17.49	
2712.616	20.81	
2714.859	26.78	
2717.099	19.82	
2719.339	23.46	
2721.577	22.47	
2723.813	21.47	
2726.048	21.47	
2728.282	22.14	
2730.514	19.82	
2732.745	20.15	
2734.974	22.47	
2737.202	25.79	
2739.428	24.46	
2741.653	23.46	
2743.877	22.8	
2746.099	22.47	
2748.32	30.43	
2750.539	24.13	
2752.757	25.12	
2754.974	26.78	
2757.189	28.77	
2759.403	25.45	
2761.615	29.77	
2763.826	31.42	
2766.035	32.09	
2768.243	28.77	
2770.45	32.75	
2772.655	31.76	
2774.859	33.08	
2777.062	35.07	
2779.263	42.37	
2781.462	39.05	
2783.66	36.07	
2785.857	36.73	
2788.053	40.71	
2790.247	42.37	
2792.439	45.02	
2794.631	39.72	
2796.82	45.35	
2799.009	47.01	
2801.196	49.67	
2803.382	47.01	
2805.566	58.62	
2807.749	52.65	
2809.93	54.97	
2812.11	58.29	
2814.289	61.94	
2816.466	59.28	
2818.642	65.25	
2820.817	65.92	
2822.99	70.56	
2825.162	66.25	
2827.332	76.2	
2829.502	73.88	
2831.669	78.85	
2833.836	84.16	
2836	81.17	
2838.164	85.48	
2840.326	84.49	
2842.487	97.09	
2844.647	96.76	
2846.805	95.77	
2848.961	99.41	
2851.117	103.39	
2853.271	110.03	
2855.423	115.33	
2857.575	114.01	
2859.725	115.67	
2861.873	116.99	
2864.02	122.3	
2866.166	125.95	
2868.311	133.91	
2870.454	127.28	
2872.596	123.96	
2874.736	131.92	
2876.875	131.59	
2879.013	127.61	
2881.149	131.26	
2883.284	129.93	
2885.418	134.24	
2887.551	130.59	
2889.682	129.26	
2891.811	129.93	
2893.94	119.31	
2896.067	117.32	
2898.192	127.61	
2900.317	123.63	
2902.439	118.65	
2904.561	119.31	
2906.681	113.34	
2908.8	112.68	
2910.918	115	
2913.034	122.96	
2915.149	114.67	
2917.263	118.98	
2919.375	113.34	
2921.486	109.7	
2923.596	108.04	
2925.704	112.02	
2927.811	106.38	
2929.917	101.74	
2932.021	100.41	
2934.124	108.7	
2936.226	103.06	
2938.327	101.07	
2940.426	95.43	
2942.524	94.77	
2944.62	94.11	
2946.715	93.44	
2948.809	87.81	
2950.902	85.15	
2952.993	86.81	
2955.083	79.51	
2957.171	74.21	
2959.259	70.56	
2961.345	71.22	
2963.429	64.92	
2965.513	61.61	
2967.595	54.31	
2969.676	51.32	
2971.755	48.67	
2973.833	45.35	
2975.91	41.71	
2977.986	43.36	
2980.06	34.08	
2982.133	33.08	
2984.205	29.1	
2986.275	26.45	
2988.345	23.13	
2990.412	25.12	
2992.479	22.8	
2994.544	22.8	
2996.608	16.17	
2998.671	16.5	
3000.732	15.17	
3002.792	13.51	
3004.851	10.86	
3006.909	12.19	
3008.965	10.53	
3011.02	7.55	
3013.074	11.52	
3015.126	12.85	
3017.177	5.89	
3019.227	9.2	
3021.276	6.55	
3023.323	6.22	
3025.369	4.89	
3027.414	4.89	
3029.458	8.54	
3031.5	6.22	
3033.541	6.22	
3035.581	5.22	
3037.619	1.91	
3039.656	2.9	
3041.692	4.23	
3043.727	6.88	
3045.76	8.21	
3047.793	3.57	
3049.824	4.56	
3051.853	-0.08	
3053.882	0.25	
3055.909	-1.08	
