RamanShift:204		
0.351	-129.33	
4.587	-15.51	
8.82	-3.23	
13.049	-2.9	
17.275	-5.22	
21.497	-2.24	
25.716	-2.24	
29.931	0.08	
34.142	-1.91	
38.351	-0.91	
42.555	1.08	
46.756	-0.91	
50.954	0.41	
55.148	-1.58	
59.339	2.07	
63.527	2.07	
67.71	-0.58	
71.891	1.41	
76.068	1.41	
80.241	2.4	
84.411	2.07	
88.578	1.08	
92.741	3.73	
96.901	5.06	
101.057	4.06	
105.21	4.39	
109.359	5.06	
113.505	7.38	
117.648	15.34	
121.787	7.71	
125.923	11.03	
130.055	15.34	
134.184	15.34	
138.31	15.67	
142.432	22.64	
146.551	28.61	
150.667	26.95	
154.779	30.6	
158.887	34.24	
162.993	38.22	
167.095	40.54	
171.193	43.2	
175.289	47.51	
179.381	49.5	
183.469	56.46	
187.554	53.48	
191.636	62.43	
195.715	58.79	
199.79	65.09	
203.862	65.09	
207.931	67.74	
211.996	66.75	
216.058	70.39	
220.116	76.03	
224.172	74.37	
228.224	78.35	
232.272	80.68	
236.318	83.99	
240.36	90.63	
244.399	95.27	
248.434	95.27	
252.466	96.6	
256.495	103.23	
260.521	110.53	
264.544	109.2	
268.563	110.53	
272.579	116.83	
276.591	115.17	
280.601	124.46	
284.607	132.75	
288.61	140.71	
292.609	158.95	
296.606	175.87	
300.599	179.51	
304.589	178.52	
308.575	159.95	
312.559	154.31	
316.539	141.7	
320.516	150.99	
324.49	165.92	
328.461	173.21	
332.428	171.22	
336.392	156.63	
340.353	143.36	
344.311	119.81	
348.266	108.87	
352.217	102.9	
356.165	88.3	
360.11	76.7	
364.052	76.36	
367.991	80.34	
371.926	86.98	
375.859	84.32	
379.788	93.28	
383.714	85.98	
387.637	78.69	
391.557	72.38	
395.473	68.4	
399.387	53.48	
403.297	54.14	
407.204	54.47	
411.108	52.49	
415.009	48.84	
418.907	39.88	
422.802	45.85	
426.693	39.55	
430.581	47.18	
434.467	35.57	
438.349	38.22	
442.228	35.9	
446.104	35.9	
449.977	33.58	
453.847	37.89	
457.713	32.92	
461.577	26.95	
465.438	27.94	
469.295	32.59	
473.149	27.94	
477.001	28.94	
480.849	28.61	
484.694	32.92	
488.536	27.61	
492.375	35.24	
496.211	33.91	
500.044	36.23	
503.874	39.88	
507.701	43.53	
511.525	43.86	
515.346	46.85	
519.163	47.18	
522.978	47.51	
526.79	54.14	
530.598	47.18	
534.404	45.19	
538.207	46.18	
542.006	43.2	
545.803	43.86	
549.596	41.21	
553.387	43.2	
557.175	42.54	
560.959	37.56	
564.741	35.24	
568.519	35.24	
572.295	33.58	
576.068	28.27	
579.837	25.95	
583.604	25.95	
587.368	23.63	
591.128	29.27	
594.886	27.28	
598.641	26.28	
602.393	23.3	
606.142	23.3	
609.887	22.64	
613.63	25.95	
617.37	28.27	
621.108	32.25	
624.842	27.94	
628.573	35.57	
632.301	40.88	
636.027	47.51	
639.749	42.2	
643.468	59.45	
647.185	69.4	
650.899	96.26	
654.609	144.02	
658.317	227.94	
662.022	321.48	
665.724	402.08	
669.423	387.81	
673.119	290.63	
676.813	175.87	
680.503	112.18	
684.191	87.31	
687.875	93.28	
691.557	109.53	
695.236	122.8	
698.912	140.38	
702.585	129.76	
706.256	107.54	
709.923	79.02	
713.588	57.79	
717.249	43.2	
720.908	36.23	
724.564	34.58	
728.217	29.6	
731.868	22.97	
735.515	24.29	
739.16	19.65	
742.801	19.98	
746.44	19.98	
750.076	21.31	
753.71	24.29	
757.34	24.96	
760.968	26.62	
764.593	27.94	
768.215	35.9	
771.834	32.59	
775.45	44.86	
779.064	53.15	
782.675	68.74	
786.283	79.68	
789.888	89.3	
793.49	103.56	
797.09	123.13	
800.686	124.46	
804.281	130.43	
807.872	126.45	
811.46	127.11	
815.046	128.1	
818.629	139.05	
822.209	138.72	
825.786	138.39	
829.361	137.06	
832.933	134.07	
836.502	123.46	
840.068	117.16	
843.632	109.53	
847.193	96.93	
850.751	92.28	
854.306	100.58	
857.859	102.9	
861.409	112.52	
864.956	128.11	
868.5	122.13	
872.042	132.42	
875.581	140.71	
879.117	141.7	
882.651	150.33	
886.182	134.41	
889.71	111.85	
893.235	96.26	
896.758	77.03	
900.278	70.39	
903.795	63.76	
907.31	62.77	
910.822	60.78	
914.331	59.45	
917.838	55.14	
921.341	52.15	
924.843	51.82	
928.341	49.5	
931.837	55.8	
935.33	45.19	
938.821	49.83	
942.308	50.16	
945.793	53.48	
949.276	54.14	
952.756	49.83	
956.233	40.21	
959.707	34.91	
963.179	37.89	
966.649	32.25	
970.115	37.56	
973.579	38.56	
977.04	38.22	
980.499	42.2	
983.955	47.18	
987.408	49.83	
990.859	50.49	
994.307	55.14	
997.753	63.76	
1001.196	66.41	
1004.636	85.32	
1008.074	87.31	
1011.509	101.24	
1014.941	114.84	
1018.371	126.11	
1021.798	132.42	
1025.223	136.06	
1028.645	139.71	
1032.064	147.67	
1035.481	150	
1038.896	150.33	
1042.307	145.35	
1045.716	149	
1049.123	144.03	
1052.527	160.94	
1055.928	154.31	
1059.327	150.99	
1062.723	138.39	
1066.117	131.42	
1069.508	129.1	
1072.897	129.1	
1076.283	119.48	
1079.666	118.82	
1083.047	121.8	
1086.425	115.17	
1089.801	110.86	
1093.174	102.57	
1096.545	97.26	
1099.913	104.22	
1103.279	105.22	
1106.642	103.56	
1110.002	114.17	
1113.36	114.17	
1116.716	126.78	
1120.069	127.11	
1123.419	126.78	
1126.767	130.1	
1130.113	123.13	
1133.456	113.18	
1136.796	106.88	
1140.134	92.28	
1143.47	84.99	
1146.802	69.07	
1150.133	58.12	
1153.461	43.86	
1156.786	41.54	
1160.109	39.88	
1163.43	29.93	
1166.748	34.58	
1170.063	24.63	
1173.376	29.27	
1176.687	26.62	
1179.995	26.95	
1183.3	27.61	
1186.603	28.61	
1189.904	29.93	
1193.202	30.93	
1196.498	32.25	
1199.791	38.22	
1203.082	34.24	
1206.37	39.88	
1209.656	45.52	
1212.94	53.48	
1216.221	56.47	
1219.499	61.11	
1222.775	72.38	
1226.049	87.31	
1229.32	89.63	
1232.589	96.27	
1235.856	85.32	
1239.12	94.61	
1242.381	97.26	
1245.64	92.95	
1248.897	94.61	
1252.151	95.6	
1255.403	96.93	
1258.652	102.24	
1261.9	115.83	
1265.144	125.45	
1268.386	140.38	
1271.626	160.94	
1274.864	166.91	
1278.099	172.55	
1281.331	161.27	
1284.562	163.26	
1287.789	149.66	
1291.015	134.74	
1294.238	128.11	
1297.459	115.17	
1300.677	104.56	
1303.893	89.3	
1307.106	77.69	
1310.318	71.39	
1313.526	66.75	
1316.733	53.15	
1319.937	52.15	
1323.139	46.52	
1326.338	47.84	
1329.535	45.52	
1332.73	43.2	
1335.922	44.53	
1339.112	44.53	
1342.3	41.21	
1345.485	41.21	
1348.668	39.88	
1351.848	50.5	
1355.027	44.19	
1358.203	39.22	
1361.376	42.2	
1364.547	48.84	
1367.716	51.16	
1370.883	48.51	
1374.047	51.49	
1377.209	47.84	
1380.369	56.13	
1383.526	52.82	
1386.681	60.45	
1389.834	55.14	
1392.984	62.77	
1396.132	64.09	
1399.278	72.72	
1402.421	75.04	
1405.562	91.29	
1408.701	103.56	
1411.838	104.23	
1414.972	101.9	
1418.104	106.55	
1421.234	92.29	
1424.361	96.93	
1427.486	94.61	
1430.609	101.57	
1433.73	105.55	
1436.848	130.1	
1439.964	141.71	
1443.078	160.28	
1446.189	165.59	
1449.299	176.2	
1452.405	170.89	
1455.51	178.85	
1458.613	186.15	
1461.713	188.14	
1464.811	193.12	
1467.906	190.79	
1471	173.55	
1474.091	146.02	
1477.18	125.12	
1480.267	100.91	
1483.351	80.68	
1486.433	61.77	
1489.513	46.18	
1492.591	39.88	
1495.666	32.92	
1498.74	28.94	
1501.811	28.27	
1504.879	22.64	
1507.946	20.31	
1511.01	17	
1514.073	19.65	
1517.132	15.67	
1520.19	10.03	
1523.246	6.72	
1526.299	10.03	
1529.35	14.01	
1532.399	13.68	
1535.446	12.35	
1538.49	10.7	
1541.532	8.71	
1544.572	14.34	
1547.61	7.05	
1550.646	9.37	
1553.68	7.38	
1556.711	2.4	
1559.74	1.08	
1562.767	3.4	
1565.792	6.38	
1568.814	6.05	
1571.835	8.71	
1574.853	4.73	
1577.869	5.72	
1580.883	3.4	
1583.895	6.38	
1586.904	4.39	
1589.912	3.4	
1592.917	5.39	
1595.92	7.38	
1598.921	8.37	
1601.92	-0.91	
1604.917	3.07	
1607.911	6.05	
1610.903	3.4	
1613.894	7.05	
1616.882	5.72	
1619.868	7.71	
1622.851	-2.9	
1625.833	9.04	
1628.812	2.4	
1631.79	3.4	
1634.765	-2.9	
1637.738	4.39	
1640.709	0.75	
1643.678	0.41	
1646.645	5.06	
1649.609	2.4	
1652.572	7.71	
1655.532	5.72	
1658.49	3.73	
1661.447	2.4	
1664.401	-0.25	
1667.353	-0.25	
1670.302	2.07	
1673.25	0.08	
1676.196	0.75	
1679.139	5.06	
1682.081	1.74	
1685.02	3.4	
1687.957	3.4	
1690.893	2.4	
1693.826	-2.9	
1696.757	4.39	
1699.686	-0.91	
1702.612	-0.58	
1705.537	2.74	
1708.46	2.74	
1711.38	-1.24	
1714.299	4.06	
1717.215	3.73	
1720.13	3.73	
1723.042	0.41	
1725.952	4.39	
1728.86	0.41	
1731.767	-0.58	
1734.671	-1.24	
1737.573	-1.24	
1740.473	-3.23	
1743.37	0.75	
1746.266	5.39	
1749.16	3.4	
1752.052	1.08	
1754.942	2.74	
1757.829	1.08	
1760.715	1.08	
1763.598	0.08	
1766.48	-0.25	
1769.36	0.41	
1772.237	3.07	
1775.112	3.4	
1777.986	0.08	
1780.857	0.08	
1783.727	6.05	
1786.594	1.74	
1789.459	0.41	
1792.323	1.41	
1795.184	1.74	
1798.043	2.74	
1800.9	-1.91	
1803.756	0.08	
1806.609	2.4	
1809.46	1.08	
1812.309	3.07	
1815.157	2.4	
1818.002	-2.57	
1820.845	0.08	
1823.686	-2.57	
1826.526	-2.24	
1829.363	-1.91	
1832.198	3.73	
1835.031	5.39	
1837.863	2.4	
1840.692	-3.57	
1843.519	1.41	
1846.345	-1.58	
1849.168	2.4	
1851.989	0.75	
1854.809	-1.58	
1857.626	0.08	
1860.441	1.74	
1863.255	4.39	
1866.066	0.75	
1868.876	-0.25	
1871.684	0.08	
1874.489	-0.91	
1877.293	0.41	
1880.095	-1.91	
1882.894	-0.58	
1885.692	-1.58	
1888.488	-2.24	
1891.282	-5.56	
1894.074	1.08	
1896.864	-0.58	
1899.652	3.73	
1902.438	1.08	
1905.222	0.75	
1908.004	-1.91	
1910.785	3.07	
1913.563	2.07	
1916.339	-1.24	
1919.114	2.4	
1921.886	1.08	
1924.657	-1.24	
1927.426	5.39	
1930.193	-0.91	
1932.957	-3.9	
1935.72	1.41	
1938.481	1.41	
1941.24	-0.91	
1943.998	-4.56	
1946.753	-0.25	
1949.506	2.07	
1952.258	-1.91	
1955.007	-0.58	
1957.755	1.08	
1960.501	2.4	
1963.245	0.75	
1965.986	5.06	
1968.726	1.08	
1971.465	-3.23	
1974.201	2.07	
1976.935	0.75	
1979.668	0.08	
1982.398	0.75	
1985.127	-0.58	
1987.854	-0.58	
1990.579	2.07	
1993.302	-0.58	
1996.023	0.75	
1998.742	4.73	
2001.46	0.08	
2004.175	-0.25	
2006.889	-1.24	
2009.6	-1.24	
2012.31	-2.57	
2015.018	-0.58	
2017.725	-0.25	
2020.429	-0.58	
2023.131	-0.91	
2025.832	0.08	
2028.531	-0.91	
2031.228	-1.24	
2033.923	2.4	
2036.616	3.4	
2039.307	0.41	
2041.997	-0.58	
2044.684	2.4	
2047.37	1.41	
2050.054	-0.25	
2052.736	0.41	
2055.416	-3.57	
2058.095	0.08	
2060.771	4.06	
2063.446	1.08	
2066.119	0.75	
2068.79	-2.57	
2071.459	-3.57	
2074.127	-0.25	
2076.792	2.07	
2079.456	0.75	
2082.118	-0.58	
2084.778	3.73	
2087.436	1.41	
2090.093	-0.58	
2092.747	0.75	
2095.4	0.08	
2098.051	1.41	
2100.7	2.07	
2103.348	1.74	
2105.993	-0.91	
2108.637	3.07	
2111.279	-0.58	
2113.919	-0.58	
2116.558	3.73	
2119.194	-1.24	
2121.829	-1.58	
2124.462	2.4	
2127.093	0.75	
2129.723	1.08	
2132.35	2.74	
2134.976	-0.58	
2137.6	4.39	
2140.223	2.07	
2142.843	-0.25	
2145.462	4.06	
2148.079	3.07	
2150.694	1.08	
2153.307	-1.91	
2155.919	0.41	
2158.528	1.41	
2161.137	-0.58	
2163.743	-2.24	
2166.347	-2.57	
2168.95	-1.91	
2171.551	-0.58	
2174.15	-1.58	
2176.748	2.07	
2179.343	2.07	
2181.937	-0.58	
2184.529	-2.9	
2187.12	-0.58	
2189.708	-0.58	
2192.295	3.4	
2194.88	5.39	
2197.464	2.07	
2200.045	1.08	
2202.625	4.06	
2205.203	2.07	
2207.78	2.4	
2210.355	3.73	
2212.928	0.75	
2215.499	2.07	
2218.068	0.75	
2220.636	5.06	
2223.202	7.38	
2225.766	7.71	
2228.329	2.4	
2230.889	3.73	
2233.449	1.08	
2236.006	3.4	
2238.562	3.4	
2241.115	5.39	
2243.668	0.08	
2246.218	-1.91	
2248.767	5.06	
2251.314	-0.58	
2253.859	5.06	
2256.403	2.4	
2258.945	5.06	
2261.485	3.07	
2264.023	-1.91	
2266.56	5.06	
2269.095	1.08	
2271.629	6.05	
2274.16	4.73	
2276.69	1.08	
2279.219	1.74	
2281.745	-0.25	
2284.27	4.06	
2286.793	2.4	
2289.315	1.74	
2291.835	4.39	
2294.353	2.74	
2296.869	1.74	
2299.384	4.06	
2301.897	4.73	
2304.408	0.41	
2306.918	2.07	
2309.426	-3.57	
2311.932	0.41	
2314.437	6.05	
2316.94	6.72	
2319.441	3.4	
2321.941	0.41	
2324.439	4.39	
2326.935	3.73	
2329.43	1.08	
2331.923	6.05	
2334.414	1.74	
2336.904	1.74	
2339.392	4.06	
2341.878	0.41	
2344.363	3.4	
2346.846	-3.23	
2349.328	6.38	
2351.807	1.08	
2354.285	2.74	
2356.762	3.73	
2359.237	3.07	
2361.71	2.4	
2364.181	3.73	
2366.651	3.4	
2369.119	5.39	
2371.586	0.08	
2374.051	3.73	
2376.514	3.73	
2378.976	3.07	
2381.436	3.4	
2383.894	2.07	
2386.351	3.07	
2388.806	2.07	
2391.259	2.4	
2393.711	3.07	
2396.161	1.08	
2398.61	4.06	
2401.057	2.07	
2403.502	-1.24	
2405.946	-1.58	
2408.388	1.74	
2410.829	3.07	
2413.268	2.74	
2415.705	2.74	
2418.141	4.06	
2420.575	1.41	
2423.007	5.06	
2425.438	3.4	
2427.867	9.04	
2430.295	-4.56	
2432.721	4.73	
2435.145	4.39	
2437.568	4.73	
2439.989	2.07	
2442.409	3.07	
2444.827	3.4	
2447.243	3.4	
2449.658	-0.58	
2452.071	2.74	
2454.483	3.4	
2456.893	5.39	
2459.302	2.4	
2461.709	3.4	
2464.114	3.73	
2466.518	1.41	
2468.92	1.74	
2471.32	4.39	
2473.719	1.74	
2476.117	-0.25	
2478.512	5.72	
2480.907	5.06	
2483.299	4.73	
2485.691	1.74	
2488.08	4.39	
2490.468	4.39	
2492.854	0.41	
2495.239	1.41	
2497.623	6.05	
2500.004	5.06	
2502.384	6.72	
2504.763	2.4	
2507.14	5.39	
2509.515	6.38	
2511.889	3.4	
2514.262	5.06	
2516.633	6.38	
2519.002	3.07	
2521.369	5.72	
2523.736	5.39	
2526.1	4.39	
2528.463	3.73	
2530.825	8.71	
2533.185	5.06	
2535.543	4.73	
2537.9	1.08	
2540.255	8.04	
2542.609	4.39	
2544.961	4.73	
2547.312	4.06	
2549.661	5.72	
2552.009	5.72	
2554.355	8.37	
2556.7	7.05	
2559.043	1.41	
2561.384	3.4	
2563.724	7.38	
2566.063	8.71	
2568.4	5.06	
2570.735	4.06	
2573.069	4.06	
2575.402	6.05	
2577.733	5.06	
2580.062	3.07	
2582.39	5.72	
2584.716	9.37	
2587.041	8.04	
2589.364	7.38	
2591.686	2.74	
2594.006	2.4	
2596.325	3.4	
2598.643	3.73	
2600.958	5.06	
2603.273	6.05	
2605.585	9.37	
2607.897	5.39	
2610.206	5.06	
2612.515	6.05	
2614.822	6.05	
2617.127	3.73	
2619.431	7.05	
2621.733	6.72	
2624.034	5.06	
2626.333	4.73	
2628.631	7.38	
2630.927	1.74	
2633.222	5.72	
2635.515	7.38	
2637.807	3.73	
2640.098	4.39	
2642.387	9.37	
2644.674	5.39	
2646.96	5.06	
2649.245	6.72	
2651.528	7.71	
2653.809	6.38	
2656.089	5.39	
2658.368	9.37	
2660.645	7.38	
2662.921	7.05	
2665.195	8.37	
2667.468	10.03	
2669.739	7.71	
2672.009	8.37	
2674.277	10.36	
2676.544	10.03	
2678.809	10.36	
2681.073	12.02	
2683.336	16	
2685.597	15.34	
2687.856	15.34	
2690.115	15.34	
2692.371	15.01	
2694.626	18.99	
2696.88	14.01	
2699.133	16.33	
2701.383	20.31	
2703.633	22.64	
2705.881	17.99	
2708.127	18.32	
2710.373	17	
2712.616	21.31	
2714.859	22.3	
2717.099	22.3	
2719.339	22.3	
2721.577	20.98	
2723.813	23.63	
2726.048	22.97	
2728.282	24.63	
2730.514	16	
2732.745	20.31	
2734.974	23.63	
2737.202	24.96	
2739.428	24.96	
2741.653	21.97	
2743.877	26.95	
2746.099	23.63	
2748.32	26.62	
2750.539	26.62	
2752.757	26.62	
2754.974	27.94	
2757.189	27.94	
2759.403	26.95	
2761.615	34.58	
2763.826	31.26	
2766.035	31.26	
2768.243	33.25	
2770.45	30.93	
2772.655	33.25	
2774.859	35.24	
2777.062	36.23	
2779.263	39.22	
2781.462	37.56	
2783.66	38.55	
2785.857	40.88	
2788.053	44.52	
2790.247	43.86	
2792.439	45.19	
2794.631	43.2	
2796.82	48.5	
2799.009	51.49	
2801.196	50.83	
2803.382	52.48	
2805.566	59.78	
2807.749	60.78	
2809.93	60.44	
2812.11	61.77	
2814.289	62.77	
2816.466	61.11	
2818.642	70.39	
2820.817	68.07	
2822.99	70.06	
2825.162	76.7	
2827.332	77.69	
2829.502	75.7	
2831.669	84.32	
2833.836	83	
2836	82.67	
2838.164	88.64	
2840.326	90.29	
2842.487	102.23	
2844.647	99.25	
2846.805	99.91	
2848.961	109.2	
2851.117	113.84	
2853.271	116.83	
2855.423	123.46	
2857.575	125.45	
2859.725	130.76	
2861.873	132.75	
2864.02	136.73	
2866.166	139.38	
2868.311	147.34	
2870.454	144.02	
2872.596	142.7	
2874.736	150	
2876.875	139.38	
2879.013	147.34	
2881.149	142.7	
2883.284	141.37	
2885.418	143.36	
2887.551	145.02	
2889.682	140.71	
2891.811	143.03	
2893.94	131.09	
2896.067	135.73	
2898.192	135.07	
2900.317	134.41	
2902.439	141.37	
2904.561	138.39	
2906.681	148.34	
2908.8	146.35	
2910.918	154.64	
2913.034	163.59	
2915.149	158.29	
2917.263	157.62	
2919.375	151.98	
2921.486	146.01	
2923.596	140.38	
2925.704	130.43	
2927.811	125.12	
2929.917	121.14	
2932.021	111.85	
2934.124	112.85	
2936.226	109.86	
2938.327	107.21	
2940.426	99.25	
2942.524	100.91	
2944.62	95.27	
2946.715	95.93	
2948.809	94.94	
2950.902	88.3	
2952.993	84.32	
2955.083	77.69	
2957.171	76.7	
2959.259	75.7	
2961.345	73.05	
2963.429	63.76	
2965.513	57.79	
2967.595	55.47	
2969.676	57.13	
2971.755	54.81	
2973.833	49.17	
2975.91	42.2	
2977.986	39.55	
2980.06	38.55	
2982.133	32.25	
2984.205	34.24	
2986.275	31.26	
2988.345	32.25	
2990.412	33.58	
2992.479	30.93	
2994.544	30.6	
2996.608	31.26	
2998.671	27.94	
3000.732	29.6	
3002.792	27.61	
3004.851	24.96	
3006.909	24.96	
3008.965	23.63	
3011.02	21.64	
3013.074	17.66	
3015.126	15.67	
3017.177	15.01	
3019.227	16.33	
3021.276	11.03	
3023.323	12.69	
3025.369	12.02	
3027.414	8.71	
3029.458	9.37	
3031.5	11.69	
3033.541	6.38	
3035.581	8.04	
3037.619	5.06	
3039.656	6.38	
3041.692	6.05	
3043.727	9.37	
3045.76	6.72	
3047.793	5.39	
3049.824	5.39	
3051.853	-0.25	
3053.882	2.07	
3055.909	-1.24	
