RamanShift:204		
0.351	-345.8	
4.587	-50.79	
8.82	-20.6	
13.049	-11.65	
17.275	-12.31	
21.497	-5.68	
25.716	-1.04	
29.931	-5.68	
34.142	-1.37	
38.351	-4.35	
42.555	0.95	
46.756	1.95	
50.954	-4.35	
55.148	-1.7	
59.339	0.62	
63.527	-1.7	
67.71	-4.35	
71.891	-3.69	
76.068	-0.37	
80.241	2.28	
84.411	1.62	
88.578	4.93	
92.741	2.61	
96.901	5.93	
101.057	5.6	
105.21	3.94	
109.359	7.59	
113.505	6.26	
117.648	9.58	
121.787	12.89	
125.923	16.87	
130.055	18.86	
134.184	20.52	
138.31	21.52	
142.432	27.15	
146.551	28.48	
150.667	30.8	
154.779	33.12	
158.887	38.1	
162.993	34.45	
167.095	44.07	
171.193	47.72	
175.289	50.7	
179.381	53.02	
183.469	57.67	
187.554	60.98	
191.636	58.99	
195.715	62.31	
199.79	58.66	
203.862	59.99	
207.931	68.28	
211.996	62.97	
216.058	66.95	
220.116	62.64	
224.172	62.97	
228.224	67.29	
232.272	67.62	
236.318	68.94	
240.36	69.94	
244.399	75.58	
248.434	75.91	
252.466	71.27	
256.495	79.56	
260.521	80.88	
264.544	81.88	
268.563	83.54	
272.579	96.8	
276.591	103.77	
280.601	128.98	
284.607	156.17	
288.61	214.55	
292.609	289.84	
296.606	369.45	
300.599	414.23	
304.589	398.97	
308.575	342.91	
312.559	295.15	
316.539	284.87	
320.516	308.08	
324.49	377.74	
328.461	427.5	
332.428	443.09	
336.392	388.69	
340.353	324.34	
344.311	252.03	
348.266	203.27	
352.217	168.78	
356.165	138.59	
360.11	125	
364.052	125.99	
367.991	135.94	
371.926	166.79	
375.859	194.65	
379.788	207.25	
383.714	196.97	
387.637	155.51	
391.557	123.01	
395.473	96.8	
399.387	81.88	
403.297	64.3	
407.204	69.61	
411.108	62.64	
415.009	51.37	
418.907	44.07	
422.802	42.41	
426.693	42.08	
430.581	40.09	
434.467	33.79	
438.349	34.78	
442.228	32.79	
446.104	29.14	
449.977	26.49	
453.847	28.81	
457.713	37.77	
461.577	46.72	
465.438	65.3	
469.295	72.92	
473.149	86.19	
477.001	90.17	
480.849	79.56	
484.694	67.62	
488.536	52.36	
492.375	41.75	
496.211	34.45	
500.044	28.81	
503.874	26.82	
507.701	31.47	
511.525	27.15	
515.346	27.49	
519.163	26.49	
522.978	29.14	
526.79	31.47	
530.598	30.14	
534.404	30.14	
538.207	31.13	
542.006	31.13	
545.803	26.49	
549.596	25.16	
553.387	26.16	
557.175	23.17	
560.959	26.16	
564.741	22.18	
568.519	26.49	
572.295	27.49	
576.068	30.14	
579.837	31.47	
583.604	38.43	
587.368	31.13	
591.128	35.45	
594.886	35.45	
598.641	40.42	
602.393	46.39	
606.142	49.04	
609.887	54.02	
613.63	61.98	
617.37	73.26	
621.108	77.57	
624.842	86.19	
628.573	98.13	
632.301	110.73	
636.027	130.3	
639.749	154.51	
643.468	192.33	
647.185	244.07	
650.899	342.58	
654.609	536.63	
658.317	858.75	
662.022	1332.22	
665.724	1771.25	
669.423	1825.36	
673.119	1400.57	
676.813	879.65	
680.503	519.38	
684.191	374.09	
687.875	368.45	
691.557	426.5	
695.236	523.36	
698.912	588.05	
702.585	592.03	
706.256	480.9	
709.923	343.91	
713.588	221.51	
717.249	160.48	
720.908	115.38	
724.564	89.84	
728.217	71.6	
731.868	66.95	
735.515	56.01	
739.16	51.03	
742.801	47.39	
746.44	38.1	
750.076	37.44	
753.71	38.76	
757.34	32.79	
760.968	28.15	
764.593	27.15	
768.215	23.17	
771.834	23.51	
775.45	24.17	
779.064	18.2	
782.675	23.51	
786.283	19.86	
789.888	23.84	
793.49	22.18	
797.09	26.16	
800.686	29.14	
804.281	40.75	
807.872	42.41	
811.46	53.36	
815.046	48.38	
818.629	48.71	
822.209	45.4	
825.786	42.08	
829.361	50.37	
832.933	63.31	
836.502	77.24	
840.068	86.85	
843.632	98.13	
847.193	111.4	
850.751	129.97	
854.306	132.29	
857.859	127.65	
861.409	113.06	
864.956	90.17	
868.5	72.59	
872.042	60.98	
875.581	50.7	
879.117	48.05	
882.651	46.72	
886.182	40.42	
889.71	42.41	
893.235	32.79	
896.758	40.75	
900.278	43.74	
903.795	42.41	
907.31	41.08	
910.822	42.41	
914.331	42.08	
917.838	50.04	
921.341	54.35	
924.843	53.02	
928.341	63.64	
931.837	60.98	
935.33	69.28	
938.821	86.85	
942.308	115.05	
945.793	136.94	
949.276	143.9	
952.756	131.96	
956.233	99.46	
959.707	77.57	
963.179	63.31	
966.649	48.38	
970.115	49.71	
973.579	52.69	
977.04	47.72	
980.499	56.67	
983.955	53.69	
987.408	57.67	
990.859	73.26	
994.307	87.19	
997.753	117.7	
1001.196	136.94	
1004.636	175.74	
1008.074	210.24	
1011.509	233.45	
1014.941	253.36	
1018.371	268.28	
1021.798	269.28	
1025.223	263.97	
1028.645	246.06	
1032.064	235.78	
1035.481	220.52	
1038.896	213.22	
1042.307	207.25	
1045.716	199.62	
1049.123	196.31	
1052.527	181.05	
1055.928	169.44	
1059.327	157.5	
1062.723	141.25	
1066.117	122.01	
1069.508	105.76	
1072.897	106.09	
1076.283	93.82	
1079.666	96.47	
1083.047	99.13	
1086.425	93.49	
1089.801	87.19	
1093.174	84.2	
1096.545	68.61	
1099.913	63.64	
1103.279	55.01	
1106.642	55.35	
1110.002	50.37	
1113.36	50.04	
1116.716	39.09	
1120.069	32.46	
1123.419	23.51	
1126.767	20.52	
1130.113	21.52	
1133.456	13.56	
1136.796	16.87	
1140.134	17.2	
1143.47	20.52	
1146.802	15.21	
1150.133	12.89	
1153.461	18.2	
1156.786	15.55	
1160.109	15.88	
1163.43	15.88	
1166.748	18.53	
1170.063	14.22	
1173.376	16.54	
1176.687	16.21	
1179.995	16.87	
1183.3	19.53	
1186.603	19.86	
1189.904	23.84	
1193.202	26.82	
1196.498	28.81	
1199.791	36.44	
1203.082	29.14	
1206.37	32.13	
1209.656	28.81	
1212.94	30.8	
1216.221	25.83	
1219.499	31.13	
1222.775	30.14	
1226.049	36.77	
1229.32	37.77	
1232.589	39.43	
1235.856	37.1	
1239.12	44.07	
1242.381	41.08	
1245.64	44.07	
1248.897	51.7	
1252.151	45.73	
1255.403	49.38	
1258.652	51.7	
1261.9	54.35	
1265.144	52.69	
1268.386	53.02	
1271.626	51.03	
1274.864	52.69	
1278.099	51.03	
1281.331	47.72	
1284.562	56.67	
1287.789	50.37	
1291.015	45.06	
1294.238	44.07	
1297.459	42.08	
1300.677	45.4	
1303.893	52.69	
1307.106	50.7	
1310.318	51.7	
1313.526	53.36	
1316.733	50.37	
1319.937	40.09	
1323.139	36.44	
1326.338	38.76	
1329.535	43.41	
1332.73	42.41	
1335.922	35.78	
1339.112	37.1	
1342.3	35.78	
1345.485	36.44	
1348.668	38.43	
1351.848	35.11	
1355.027	42.08	
1358.203	40.09	
1361.376	44.07	
1364.547	43.07	
1367.716	51.7	
1370.883	41.42	
1374.047	50.04	
1377.209	53.36	
1380.369	52.03	
1383.526	61.98	
1386.681	69.61	
1389.834	67.29	
1392.984	74.58	
1396.132	92.49	
1399.278	110.74	
1402.421	136.94	
1405.562	180.72	
1408.701	222.51	
1411.838	248.38	
1414.972	258.33	
1418.104	236.77	
1421.234	197.3	
1424.361	167.12	
1427.486	137.27	
1430.609	112.39	
1433.73	93.49	
1436.848	88.85	
1439.964	84.2	
1443.078	82.21	
1446.189	90.84	
1449.299	93.16	
1452.405	98.46	
1455.51	105.1	
1458.613	98.13	
1461.713	94.48	
1464.811	77.24	
1467.906	72.92	
1471	56.67	
1474.091	48.71	
1477.18	35.11	
1480.267	28.81	
1483.351	22.84	
1486.433	19.19	
1489.513	18.53	
1492.591	20.19	
1495.666	5.93	
1498.74	8.25	
1501.811	6.26	
1504.879	6.59	
1507.946	15.21	
1511.01	2.94	
1514.073	2.61	
1517.132	3.28	
1520.19	6.92	
1523.246	2.28	
1526.299	5.93	
1529.35	2.94	
1532.399	6.26	
1535.446	0.95	
1538.49	11.23	
1541.532	-0.37	
1544.572	7.59	
1547.61	0.62	
1550.646	-0.37	
1553.68	-0.04	
1556.711	-0.7	
1559.74	2.94	
1562.767	4.93	
1565.792	-2.36	
1568.814	0.62	
1571.835	2.61	
1574.853	1.29	
1577.869	2.94	
1580.883	1.95	
1583.895	1.62	
1586.904	5.93	
1589.912	1.62	
1592.917	2.28	
1595.92	1.29	
1598.921	0.95	
1601.92	-2.03	
1604.917	-3.36	
1607.911	6.26	
1610.903	3.94	
1613.894	3.28	
1616.882	-1.04	
1619.868	5.27	
1622.851	-3.03	
1625.833	2.61	
1628.812	-0.37	
1631.79	4.6	
1634.765	-2.69	
1637.738	4.6	
1640.709	3.28	
1643.678	-1.7	
1646.645	3.94	
1649.609	0.29	
1652.572	3.61	
1655.532	-1.7	
1658.49	-2.69	
1661.447	2.61	
1664.401	0.29	
1667.353	-0.04	
1670.302	6.59	
1673.25	-1.04	
1676.196	-4.35	
1679.139	-1.04	
1682.081	-1.7	
1685.02	0.62	
1687.957	0.62	
1690.893	-6.01	
1693.826	2.61	
1696.757	1.29	
1699.686	-2.69	
1702.612	1.29	
1705.537	-6.34	
1708.46	1.95	
1711.38	-1.37	
1714.299	-1.37	
1717.215	-1.37	
1720.13	0.62	
1723.042	-0.7	
1725.952	-4.68	
1728.86	-2.03	
1731.767	-1.7	
1734.671	0.62	
1737.573	0.95	
1740.473	2.94	
1743.37	-1.7	
1746.266	-4.68	
1749.16	-2.36	
1752.052	-6.67	
1754.942	1.95	
1757.829	-2.03	
1760.715	-1.37	
1763.598	-1.04	
1766.48	-4.35	
1769.36	-5.35	
1772.237	1.29	
1775.112	-1.7	
1777.986	-1.04	
1780.857	3.94	
1783.727	1.62	
1786.594	-0.7	
1789.459	-4.35	
1792.323	-1.37	
1795.184	-1.04	
1798.043	0.95	
1800.9	-4.02	
1803.756	0.95	
1806.609	3.94	
1809.46	-2.03	
1812.309	-5.68	
1815.157	2.61	
1818.002	-1.7	
1820.845	-3.36	
1823.686	-1.7	
1826.526	-1.04	
1829.363	-3.69	
1832.198	-0.37	
1835.031	-7.67	
1837.863	-3.36	
1840.692	2.28	
1843.519	2.94	
1846.345	-1.37	
1849.168	-5.02	
1851.989	2.61	
1854.809	-1.04	
1857.626	-2.36	
1860.441	-2.69	
1863.255	3.28	
1866.066	-1.04	
1868.876	2.94	
1871.684	-3.36	
1874.489	-2.69	
1877.293	-6.01	
1880.095	0.29	
1882.894	3.28	
1885.692	-4.02	
1888.488	-3.03	
1891.282	-2.03	
1894.074	-0.7	
1896.864	-1.04	
1899.652	-3.36	
1902.438	-0.37	
1905.222	2.61	
1908.004	-3.36	
1910.785	-5.68	
1913.563	1.95	
1916.339	-1.04	
1919.114	1.62	
1921.886	0.29	
1924.657	-1.04	
1927.426	-2.03	
1930.193	-2.36	
1932.957	-3.69	
1935.72	3.94	
1938.481	-0.37	
1941.24	4.27	
1943.998	-0.7	
1946.753	-2.69	
1949.506	0.62	
1952.258	-3.69	
1955.007	-1.04	
1957.755	-0.37	
1960.501	-0.7	
1963.245	0.95	
1965.986	-0.7	
1968.726	1.95	
1971.465	-3.03	
1974.201	-0.7	
1976.935	-0.37	
1979.668	-1.7	
1982.398	-1.37	
1985.127	0.29	
1987.854	-2.36	
1990.579	1.29	
1993.302	-3.36	
1996.023	1.29	
1998.742	-0.04	
2001.46	-1.37	
2004.175	-1.04	
2006.889	0.95	
2009.6	-2.69	
2012.31	-3.03	
2015.018	3.28	
2017.725	-2.36	
2020.429	4.27	
2023.131	-0.37	
2025.832	0.62	
2028.531	-1.7	
2031.228	0.62	
2033.923	-2.03	
2036.616	-3.36	
2039.307	-2.69	
2041.997	1.29	
2044.684	-1.04	
2047.37	-1.04	
2050.054	0.29	
2052.736	0.95	
2055.416	2.28	
2058.095	-0.37	
2060.771	-2.69	
2063.446	2.61	
2066.119	0.95	
2068.79	-0.04	
2071.459	-4.02	
2074.127	1.95	
2076.792	2.28	
2079.456	1.95	
2082.118	-4.68	
2084.778	-3.03	
2087.436	-1.7	
2090.093	-0.04	
2092.747	0.62	
2095.4	-0.04	
2098.051	-1.37	
2100.7	-1.37	
2103.348	-0.04	
2105.993	-2.36	
2108.637	-2.03	
2111.279	-1.37	
2113.919	6.26	
2116.558	-2.36	
2119.194	2.61	
2121.829	-0.7	
2124.462	-2.03	
2127.093	-0.04	
2129.723	0.95	
2132.35	-3.03	
2134.976	-0.7	
2137.6	-4.68	
2140.223	-1.04	
2142.843	-0.37	
2145.462	-1.37	
2148.079	-1.04	
2150.694	-3.69	
2153.307	0.29	
2155.919	-1.04	
2158.528	-0.37	
2161.137	-1.37	
2163.743	0.29	
2166.347	-3.69	
2168.95	-4.35	
2171.551	1.62	
2174.15	-1.37	
2176.748	6.92	
2179.343	-0.04	
2181.937	-0.7	
2184.529	1.62	
2187.12	-2.03	
2189.708	0.62	
2192.295	-0.37	
2194.88	-3.36	
2197.464	-1.37	
2200.045	0.95	
2202.625	-0.7	
2205.203	-1.37	
2207.78	-3.36	
2210.355	-4.02	
2212.928	0.29	
2215.499	1.29	
2218.068	1.62	
2220.636	-3.36	
2223.202	-1.7	
2225.766	1.95	
2228.329	-0.7	
2230.889	-4.02	
2233.449	3.94	
2236.006	-1.7	
2238.562	-2.03	
2241.115	2.28	
2243.668	-1.37	
2246.218	-6.01	
2248.767	0.95	
2251.314	1.29	
2253.859	-3.36	
2256.403	-2.69	
2258.945	0.95	
2261.485	1.62	
2264.023	0.29	
2266.56	-0.7	
2269.095	0.95	
2271.629	0.62	
2274.16	-2.69	
2276.69	-2.36	
2279.219	-2.36	
2281.745	-3.03	
2284.27	-0.04	
2286.793	0.62	
2289.315	-3.03	
2291.835	-3.69	
2294.353	-1.04	
2296.869	-0.37	
2299.384	3.28	
2301.897	-1.7	
2304.408	0.95	
2306.918	-1.7	
2309.426	-1.04	
2311.932	0.95	
2314.437	0.95	
2316.94	-0.7	
2319.441	-1.04	
2321.941	-0.37	
2324.439	0.95	
2326.935	-4.02	
2329.43	-1.7	
2331.923	1.62	
2334.414	-0.04	
2336.904	-1.04	
2339.392	1.95	
2341.878	2.28	
2344.363	2.94	
2346.846	0.95	
2349.328	0.62	
2351.807	-0.37	
2354.285	-0.7	
2356.762	1.29	
2359.237	-2.69	
2361.71	-0.7	
2364.181	-3.69	
2366.651	-0.37	
2369.119	-1.7	
2371.586	-1.04	
2374.051	0.95	
2376.514	-3.03	
2378.976	1.29	
2381.436	6.59	
2383.894	-1.04	
2386.351	1.95	
2388.806	-0.7	
2391.259	1.29	
2393.711	-2.03	
2396.161	-0.37	
2398.61	2.28	
2401.057	-1.04	
2403.502	-0.37	
2405.946	2.28	
2408.388	-0.7	
2410.829	-0.37	
2413.268	0.62	
2415.705	-5.35	
2418.141	-2.03	
2420.575	-2.03	
2423.007	-0.37	
2425.438	1.29	
2427.867	-7.01	
2430.295	3.28	
2432.721	-0.7	
2435.145	1.29	
2437.568	1.62	
2439.989	-0.04	
2442.409	-1.37	
2444.827	-1.04	
2447.243	-2.03	
2449.658	-4.35	
2452.071	0.29	
2454.483	-1.04	
2456.893	-0.7	
2459.302	0.29	
2461.709	1.29	
2464.114	-0.37	
2466.518	3.28	
2468.92	-3.03	
2471.32	-2.36	
2473.719	0.62	
2476.117	-2.03	
2478.512	-0.37	
2480.907	-1.37	
2483.299	-5.02	
2485.691	-7.01	
2488.08	1.95	
2490.468	-7.01	
2492.854	-1.04	
2495.239	0.29	
2497.623	-1.37	
2500.004	-2.69	
2502.384	-0.04	
2504.763	-0.37	
2507.14	-1.04	
2509.515	-1.37	
2511.889	-2.36	
2514.262	0.95	
2516.633	-6.67	
2519.002	-3.03	
2521.369	-1.04	
2523.736	-5.02	
2526.1	-4.35	
2528.463	1.29	
2530.825	-4.02	
2533.185	-0.37	
2535.543	-5.35	
2537.9	-4.02	
2540.255	-4.35	
2542.609	-2.36	
2544.961	-0.7	
2547.312	-3.36	
2549.661	-2.03	
2552.009	2.28	
2554.355	-0.7	
2556.7	0.29	
2559.043	-0.37	
2561.384	-1.7	
2563.724	-0.7	
2566.063	1.62	
2568.4	2.94	
2570.735	-2.69	
2573.069	-4.02	
2575.402	0.62	
2577.733	2.94	
2580.062	1.29	
2582.39	1.95	
2584.716	2.28	
2587.041	-0.7	
2589.364	-2.03	
2591.686	-0.7	
2594.006	-1.04	
2596.325	-0.37	
2598.643	0.62	
2600.958	-0.7	
2603.273	-0.04	
2605.585	0.62	
2607.897	-4.68	
2610.206	0.62	
2612.515	1.62	
2614.822	1.29	
2617.127	-1.7	
2619.431	-3.03	
2621.733	-0.04	
2624.034	2.28	
2626.333	3.28	
2628.631	-1.7	
2630.927	-2.69	
2633.222	2.61	
2635.515	1.29	
2637.807	0.95	
2640.098	2.28	
2642.387	-3.36	
2644.674	0.29	
2646.96	-0.37	
2649.245	-1.7	
2651.528	-0.04	
2653.809	-0.7	
2656.089	0.62	
2658.368	-0.04	
2660.645	2.94	
2662.921	0.62	
2665.195	-0.37	
2667.468	-0.04	
2669.739	0.95	
2672.009	-1.04	
2674.277	2.61	
2676.544	-1.7	
2678.809	1.62	
2681.073	-2.69	
2683.336	-0.37	
2685.597	1.95	
2687.856	2.94	
2690.115	0.95	
2692.371	4.6	
2694.626	2.61	
2696.88	3.61	
2699.133	1.62	
2701.383	2.61	
2703.633	5.93	
2705.881	1.95	
2708.127	5.6	
2710.373	3.61	
2712.616	4.93	
2714.859	5.93	
2717.099	4.93	
2719.339	3.94	
2721.577	7.59	
2723.813	3.28	
2726.048	4.6	
2728.282	1.62	
2730.514	6.92	
2732.745	3.94	
2734.974	-0.37	
2737.202	6.59	
2739.428	9.58	
2741.653	4.27	
2743.877	9.58	
2746.099	5.6	
2748.32	7.92	
2750.539	6.26	
2752.757	8.58	
2754.974	12.56	
2757.189	7.92	
2759.403	6.92	
2761.615	8.25	
2763.826	8.58	
2766.035	7.92	
2768.243	5.6	
2770.45	9.91	
2772.655	9.91	
2774.859	11.23	
2777.062	7.25	
2779.263	8.25	
2781.462	12.23	
2783.66	6.92	
2785.857	13.56	
2788.053	13.89	
2790.247	13.56	
2792.439	12.23	
2794.631	15.21	
2796.82	15.21	
2799.009	20.85	
2801.196	20.52	
2803.382	23.84	
2805.566	22.84	
2807.749	23.17	
2809.93	19.53	
2812.11	24.5	
2814.289	30.47	
2816.466	26.49	
2818.642	27.49	
2820.817	27.82	
2822.99	27.49	
2825.162	32.46	
2827.332	29.14	
2829.502	34.12	
2831.669	34.45	
2833.836	37.1	
2836	35.11	
2838.164	39.76	
2840.326	44.07	
2842.487	42.08	
2844.647	43.41	
2846.805	48.05	
2848.961	45.4	
2851.117	51.03	
2853.271	53.36	
2855.423	56.01	
2857.575	55.35	
2859.725	60.98	
2861.873	62.97	
2864.02	61.98	
2866.166	69.28	
2868.311	71.6	
2870.454	68.94	
2872.596	65.3	
2874.736	69.28	
2876.875	78.23	
2879.013	77.24	
2881.149	79.23	
2883.284	79.22	
2885.418	77.57	
2887.551	89.51	
2889.682	86.85	
2891.811	88.51	
2893.94	91.83	
2896.067	96.47	
2898.192	104.1	
2900.317	112.72	
2902.439	121.01	
2904.561	142.9	
2906.681	168.44	
2908.8	195.31	
2910.918	224.16	
2913.034	255.34	
2915.149	264.3	
2917.263	264.63	
2919.375	246.06	
2921.486	226.49	
2923.596	203.27	
2925.704	174.41	
2927.811	148.54	
2929.917	132.29	
2932.021	114.38	
2934.124	104.43	
2936.226	92.49	
2938.327	87.85	
2940.426	86.19	
2942.524	74.25	
2944.62	67.62	
2946.715	67.28	
2948.809	58.66	
2950.902	57	
2952.993	56.01	
2955.083	50.37	
2957.171	51.03	
2959.259	44.73	
2961.345	44.73	
2963.429	48.05	
2965.513	43.07	
2967.595	38.1	
2969.676	38.76	
2971.755	38.76	
2973.833	41.08	
2975.91	40.09	
2977.986	35.78	
2980.06	39.09	
2982.133	41.42	
2984.205	41.75	
2986.275	47.05	
2988.345	53.36	
2990.412	57.34	
2992.479	60.65	
2994.544	68.28	
2996.608	72.59	
2998.671	73.59	
3000.732	71.93	
3002.792	71.93	
3004.851	70.27	
3006.909	67.28	
3008.965	64.96	
3011.02	54.02	
3013.074	51.37	
3015.126	46.72	
3017.177	40.09	
3019.227	34.45	
3021.276	33.12	
3023.323	26.16	
3025.369	22.84	
3027.414	21.18	
3029.458	17.87	
3031.5	18.2	
3033.541	16.87	
3035.581	17.54	
3037.619	12.89	
3039.656	11.9	
3041.692	12.56	
3043.727	9.58	
3045.76	8.58	
3047.793	8.25	
3049.824	11.23	
3051.853	0.62	
3053.882	1.29	
3055.909	3.94	
