RamanShift:204		
0.351	-628.4	
4.587	-89.51	
8.82	-32.79	
13.049	-20.19	
17.275	-15.21	
21.497	-1.29	
25.716	-2.61	
29.931	-6.26	
34.142	-1.95	
38.351	-1.95	
42.555	0.7	
46.756	-0.95	
50.954	-1.62	
55.148	2.69	
59.339	-0.29	
63.527	-2.94	
67.71	0.7	
71.891	-2.94	
76.068	-0.29	
80.241	4.02	
84.411	2.03	
88.578	4.68	
92.741	3.69	
96.901	7.67	
101.057	2.69	
105.21	2.03	
109.359	9	
113.505	6.67	
117.648	7.67	
121.787	11.98	
125.923	13.31	
130.055	13.97	
134.184	17.29	
138.31	16.96	
142.432	20.94	
146.551	21.27	
150.667	22.26	
154.779	25.58	
158.887	30.22	
162.993	30.55	
167.095	33.54	
171.193	37.19	
175.289	35.2	
179.381	41.5	
183.469	46.14	
187.554	48.46	
191.636	54.77	
195.715	47.47	
199.79	46.47	
203.862	51.78	
207.931	58.08	
211.996	55.76	
216.058	58.75	
220.116	55.76	
224.172	58.75	
228.224	58.41	
232.272	61.73	
236.318	62.73	
240.36	61.4	
244.399	66.37	
248.434	69.03	
252.466	72.68	
256.495	76.99	
260.521	82.96	
264.544	85.94	
268.563	85.28	
272.579	96.55	
276.591	96.89	
280.601	106.84	
284.607	136.69	
288.61	179.47	
292.609	237.19	
296.606	286.61	
300.599	313.81	
304.589	290.26	
308.575	253.11	
312.559	223.25	
316.539	217.28	
320.516	239.84	
324.49	293.57	
328.461	334.7	
332.428	332.38	
336.392	274	
340.353	225.58	
344.311	181.79	
348.266	147.63	
352.217	120.77	
356.165	101.2	
360.11	91.58	
364.052	103.19	
367.991	103.52	
371.926	129.72	
375.859	158.25	
379.788	159.57	
383.714	140.67	
387.637	109.16	
391.557	84.28	
395.473	65.05	
399.387	53.77	
403.297	44.15	
407.204	46.47	
411.108	41.83	
415.009	32.88	
418.907	31.55	
422.802	31.88	
426.693	34.2	
430.581	29.89	
434.467	24.92	
438.349	28.9	
442.228	25.25	
446.104	26.57	
449.977	22.93	
453.847	24.25	
457.713	23.92	
461.577	31.22	
465.438	40.17	
469.295	41.83	
473.149	41.83	
477.001	34.87	
480.849	29.56	
484.694	23.92	
488.536	26.57	
492.375	22.26	
496.211	23.92	
500.044	22.26	
503.874	27.24	
507.701	24.58	
511.525	28.56	
515.346	25.25	
519.163	26.91	
522.978	28.56	
526.79	28.9	
530.598	28.9	
534.404	25.91	
538.207	23.92	
542.006	26.57	
545.803	24.58	
549.596	27.57	
553.387	21.93	
557.175	24.25	
560.959	28.23	
564.741	24.25	
568.519	24.92	
572.295	33.54	
576.068	30.89	
579.837	28.9	
583.604	34.53	
587.368	31.88	
591.128	35.53	
594.886	32.88	
598.641	35.86	
602.393	43.16	
606.142	44.15	
609.887	47.14	
613.63	66.04	
617.37	84.61	
621.108	106.84	
624.842	132.04	
628.573	139.34	
632.301	125.74	
636.027	124.75	
639.749	132.38	
643.468	158.25	
647.185	198.38	
650.899	285.61	
654.609	445.16	
658.317	703.24	
662.022	1037.99	
665.724	1255.65	
669.423	1204.55	
673.119	872.1	
676.813	522.45	
680.503	319.11	
684.191	263.72	
687.875	273.34	
691.557	327.74	
695.236	387.44	
698.912	403.36	
702.585	385.12	
706.256	300.21	
709.923	203.69	
713.588	136.69	
717.249	102.52	
720.908	75.66	
724.564	64.05	
728.217	57.09	
731.868	51.45	
735.515	43.49	
739.16	43.16	
742.801	42.49	
746.44	33.21	
750.076	30.55	
753.71	29.23	
757.34	33.54	
760.968	27.9	
764.593	29.56	
768.215	25.91	
771.834	27.24	
775.45	30.55	
779.064	29.56	
782.675	28.23	
786.283	29.89	
789.888	35.86	
793.49	38.18	
797.09	37.85	
800.686	39.51	
804.281	45.81	
807.872	44.82	
811.46	44.82	
815.046	44.82	
818.629	42.83	
822.209	45.48	
825.786	43.16	
829.361	48.46	
832.933	47.47	
836.502	49.79	
840.068	60.07	
843.632	61.4	
847.193	75.99	
850.751	85.61	
854.306	92.91	
857.859	88.6	
861.409	84.95	
864.956	76.32	
868.5	61.73	
872.042	60.07	
875.581	56.76	
879.117	59.08	
882.651	61.4	
886.182	58.08	
889.71	50.12	
893.235	39.51	
896.758	38.18	
900.278	36.86	
903.795	35.53	
907.31	40.17	
910.822	36.19	
914.331	29.56	
917.838	34.87	
921.341	43.49	
924.843	43.49	
928.341	41.83	
931.837	48.13	
935.33	52.44	
938.821	62.39	
942.308	71.02	
945.793	96.89	
949.276	95.23	
952.756	89.92	
956.233	71.35	
959.707	54.43	
963.179	54.77	
966.649	39.84	
970.115	40.5	
973.579	44.82	
977.04	44.82	
980.499	48.46	
983.955	45.81	
987.408	55.43	
990.859	63.39	
994.307	71.35	
997.753	75.33	
1001.196	89.26	
1004.636	110.49	
1008.074	138.01	
1011.509	162.89	
1014.941	176.49	
1018.371	191.41	
1021.798	195.39	
1025.223	201.03	
1028.645	192.74	
1032.064	183.78	
1035.481	176.49	
1038.896	167.86	
1042.307	158.25	
1045.716	154.27	
1049.123	147.63	
1052.527	142.66	
1055.928	137.02	
1059.327	120.44	
1062.723	114.8	
1066.117	89.59	
1069.508	76.32	
1072.897	76.32	
1076.283	70.69	
1079.666	65.38	
1083.047	68.36	
1086.425	60.74	
1089.801	62.39	
1093.174	61.07	
1096.545	54.77	
1099.913	42.83	
1103.279	44.15	
1106.642	42.49	
1110.002	37.85	
1113.36	45.81	
1116.716	40.5	
1120.069	38.85	
1123.419	36.86	
1126.767	41.83	
1130.113	35.53	
1133.456	31.55	
1136.796	35.2	
1140.134	32.88	
1143.47	29.56	
1146.802	29.23	
1150.133	25.25	
1153.461	20.94	
1156.786	19.94	
1160.109	16.29	
1163.43	18.61	
1166.748	24.92	
1170.063	17.29	
1173.376	14.97	
1176.687	20.27	
1179.995	13.97	
1183.3	17.29	
1186.603	19.28	
1189.904	21.6	
1193.202	21.6	
1196.498	24.25	
1199.791	26.91	
1203.082	21.6	
1206.37	30.55	
1209.656	25.91	
1212.94	28.56	
1216.221	21.93	
1219.499	27.57	
1222.775	34.2	
1226.049	32.54	
1229.32	39.84	
1232.589	31.22	
1235.856	38.51	
1239.12	38.51	
1242.381	46.81	
1245.64	40.84	
1248.897	40.84	
1252.151	39.51	
1255.403	43.82	
1258.652	46.14	
1261.9	47.14	
1265.144	53.11	
1268.386	52.78	
1271.626	57.42	
1274.864	57.75	
1278.099	65.38	
1281.331	57.75	
1284.562	61.73	
1287.789	50.45	
1291.015	53.44	
1294.238	45.48	
1297.459	49.13	
1300.677	39.51	
1303.893	46.14	
1307.106	43.16	
1310.318	43.49	
1313.526	36.52	
1316.733	39.18	
1319.937	27.57	
1323.139	31.88	
1326.338	34.2	
1329.535	31.88	
1332.73	31.55	
1335.922	24.92	
1339.112	34.53	
1342.3	32.54	
1345.485	32.21	
1348.668	28.9	
1351.848	30.89	
1355.027	33.54	
1358.203	35.86	
1361.376	39.84	
1364.547	36.52	
1367.716	48.13	
1370.883	39.18	
1374.047	46.47	
1377.209	48.13	
1380.369	47.8	
1383.526	54.77	
1386.681	56.42	
1389.834	55.76	
1392.984	64.05	
1396.132	67.04	
1399.278	79.64	
1402.421	103.85	
1405.562	130.06	
1408.701	165.21	
1411.838	183.46	
1414.972	189.09	
1418.104	173.84	
1421.234	145.31	
1424.361	122.76	
1427.486	100.21	
1430.609	95.89	
1433.73	82.29	
1436.848	85.94	
1439.964	83.95	
1443.078	85.28	
1446.189	82.63	
1449.299	74.67	
1452.405	82.96	
1455.51	86.61	
1458.613	86.61	
1461.713	74.33	
1464.811	63.39	
1467.906	70.02	
1471	59.41	
1474.091	54.1	
1477.18	44.82	
1480.267	35.2	
1483.351	25.91	
1486.433	25.91	
1489.513	26.57	
1492.591	22.93	
1495.666	10.99	
1498.74	13.64	
1501.811	11.65	
1504.879	9.99	
1507.946	11.65	
1511.01	10.99	
1514.073	8.66	
1517.132	9.66	
1520.19	12.98	
1523.246	5.02	
1526.299	10.65	
1529.35	6.67	
1532.399	12.98	
1535.446	8.66	
1538.49	12.31	
1541.532	2.69	
1544.572	6.34	
1547.61	1.04	
1550.646	2.69	
1553.68	0.7	
1556.711	7.34	
1559.74	6.67	
1562.767	9	
1565.792	5.35	
1568.814	9	
1571.835	8	
1574.853	5.68	
1577.869	7.01	
1580.883	6.34	
1583.895	9.33	
1586.904	9.33	
1589.912	6.01	
1592.917	9.99	
1595.92	6.67	
1598.921	8.33	
1601.92	2.69	
1604.917	6.67	
1607.911	7.67	
1610.903	9.99	
1613.894	5.68	
1616.882	3.36	
1619.868	10.99	
1622.851	2.03	
1625.833	5.35	
1628.812	5.02	
1631.79	5.02	
1634.765	2.69	
1637.738	5.02	
1640.709	7.34	
1643.678	6.67	
1646.645	7.34	
1649.609	6.01	
1652.572	6.34	
1655.532	1.7	
1658.49	3.69	
1661.447	5.68	
1664.401	3.69	
1667.353	4.68	
1670.302	10.32	
1673.25	9.33	
1676.196	3.69	
1679.139	2.36	
1682.081	-0.29	
1685.02	5.68	
1687.957	10.32	
1690.893	1.04	
1693.826	3.36	
1696.757	4.02	
1699.686	2.69	
1702.612	7.01	
1705.537	0.7	
1708.46	5.68	
1711.38	3.69	
1714.299	1.37	
1717.215	9.66	
1720.13	8	
1723.042	4.02	
1725.952	1.04	
1728.86	5.68	
1731.767	5.02	
1734.671	6.67	
1737.573	2.69	
1740.473	8.66	
1743.37	2.69	
1746.266	4.02	
1749.16	4.02	
1752.052	3.03	
1754.942	9.99	
1757.829	6.34	
1760.715	1.37	
1763.598	1.7	
1766.48	6.01	
1769.36	6.01	
1772.237	10.32	
1775.112	2.69	
1777.986	4.68	
1780.857	3.69	
1783.727	4.02	
1786.594	5.68	
1789.459	3.69	
1792.323	3.69	
1795.184	8	
1798.043	7.34	
1800.9	7.01	
1803.756	5.02	
1806.609	8	
1809.46	6.67	
1812.309	1.04	
1815.157	8.66	
1818.002	5.35	
1820.845	2.36	
1823.686	7.34	
1826.526	4.35	
1829.363	8	
1832.198	5.02	
1835.031	3.03	
1837.863	4.02	
1840.692	7.67	
1843.519	7.67	
1846.345	2.03	
1849.168	5.68	
1851.989	7.67	
1854.809	6.67	
1857.626	3.69	
1860.441	5.35	
1863.255	7.01	
1866.066	7.01	
1868.876	6.34	
1871.684	6.67	
1874.489	7.34	
1877.293	2.69	
1880.095	3.36	
1882.894	10.65	
1885.692	4.68	
1888.488	7.01	
1891.282	5.68	
1894.074	4.68	
1896.864	4.68	
1899.652	3.36	
1902.438	5.02	
1905.222	9.33	
1908.004	8	
1910.785	6.01	
1913.563	10.65	
1916.339	4.02	
1919.114	7.34	
1921.886	1.37	
1924.657	5.68	
1927.426	7.34	
1930.193	1.7	
1932.957	4.68	
1935.72	8.66	
1938.481	3.69	
1941.24	10.99	
1943.998	8.33	
1946.753	6.01	
1949.506	4.68	
1952.258	6.67	
1955.007	2.36	
1957.755	7.34	
1960.501	5.68	
1963.245	7.34	
1965.986	8.33	
1968.726	9	
1971.465	4.02	
1974.201	4.02	
1976.935	6.34	
1979.668	6.01	
1982.398	4.68	
1985.127	8	
1987.854	8	
1990.579	7.34	
1993.302	5.02	
1996.023	1.7	
1998.742	9	
2001.46	5.68	
2004.175	2.69	
2006.889	4.02	
2009.6	7.67	
2012.31	4.35	
2015.018	8	
2017.725	4.35	
2020.429	5.68	
2023.131	3.69	
2025.832	8	
2028.531	4.02	
2031.228	2.03	
2033.923	6.01	
2036.616	5.68	
2039.307	5.35	
2041.997	7.34	
2044.684	6.67	
2047.37	5.35	
2050.054	5.02	
2052.736	7.67	
2055.416	8	
2058.095	5.02	
2060.771	5.35	
2063.446	8.66	
2066.119	5.68	
2068.79	4.35	
2071.459	3.03	
2074.127	3.69	
2076.792	9.33	
2079.456	5.35	
2082.118	6.67	
2084.778	7.34	
2087.436	5.02	
2090.093	5.35	
2092.747	8	
2095.4	5.68	
2098.051	3.03	
2100.7	4.02	
2103.348	7.34	
2105.993	7.01	
2108.637	5.68	
2111.279	6.34	
2113.919	11.32	
2116.558	7.01	
2119.194	8.66	
2121.829	6.34	
2124.462	4.02	
2127.093	6.67	
2129.723	7.34	
2132.35	5.35	
2134.976	5.02	
2137.6	5.35	
2140.223	5.35	
2142.843	6.34	
2145.462	3.69	
2148.079	9.33	
2150.694	5.02	
2153.307	8.66	
2155.919	5.02	
2158.528	8.66	
2161.137	3.36	
2163.743	6.67	
2166.347	6.34	
2168.95	2.36	
2171.551	7.34	
2174.15	6.34	
2176.748	7.67	
2179.343	6.67	
2181.937	5.02	
2184.529	6.34	
2187.12	3.03	
2189.708	5.35	
2192.295	3.36	
2194.88	5.35	
2197.464	5.68	
2200.045	4.68	
2202.625	7.67	
2205.203	5.35	
2207.78	5.02	
2210.355	3.36	
2212.928	5.02	
2215.499	9	
2218.068	7.01	
2220.636	1.37	
2223.202	6.01	
2225.766	5.68	
2228.329	8.66	
2230.889	6.01	
2233.449	8	
2236.006	6.67	
2238.562	6.34	
2241.115	8	
2243.668	6.01	
2246.218	1.37	
2248.767	6.01	
2251.314	8.66	
2253.859	7.01	
2256.403	7.01	
2258.945	8.33	
2261.485	6.34	
2264.023	8.33	
2266.56	6.01	
2269.095	7.67	
2271.629	7.01	
2274.16	5.02	
2276.69	4.68	
2279.219	4.68	
2281.745	5.02	
2284.27	7.34	
2286.793	6.34	
2289.315	2.36	
2291.835	4.02	
2294.353	3.03	
2296.869	6.34	
2299.384	8.33	
2301.897	3.03	
2304.408	7.34	
2306.918	7.34	
2309.426	2.36	
2311.932	5.02	
2314.437	7.34	
2316.94	8.33	
2319.441	1.7	
2321.941	3.69	
2324.439	10.65	
2326.935	3.03	
2329.43	5.02	
2331.923	6.34	
2334.414	6.34	
2336.904	7.67	
2339.392	4.68	
2341.878	9.33	
2344.363	6.01	
2346.846	7.01	
2349.328	8.66	
2351.807	6.01	
2354.285	7.01	
2356.762	5.35	
2359.237	2.69	
2361.71	2.69	
2364.181	6.01	
2366.651	5.35	
2369.119	3.69	
2371.586	6.67	
2374.051	6.67	
2376.514	3.03	
2378.976	3.03	
2381.436	7.34	
2383.894	5.02	
2386.351	8	
2388.806	5.02	
2391.259	9	
2393.711	6.34	
2396.161	2.69	
2398.61	4.68	
2401.057	5.35	
2403.502	5.02	
2405.946	6.67	
2408.388	4.35	
2410.829	5.68	
2413.268	5.68	
2415.705	3.03	
2418.141	3.03	
2420.575	2.03	
2423.007	6.34	
2425.438	5.35	
2427.867	0.7	
2430.295	6.67	
2432.721	2.69	
2435.145	3.69	
2437.568	4.68	
2439.989	3.36	
2442.409	2.69	
2444.827	5.68	
2447.243	4.68	
2449.658	4.35	
2452.071	4.02	
2454.483	0.7	
2456.893	5.35	
2459.302	4.02	
2461.709	5.02	
2464.114	1.37	
2466.518	8.66	
2468.92	2.36	
2471.32	5.35	
2473.719	5.68	
2476.117	4.35	
2478.512	6.34	
2480.907	3.03	
2483.299	2.36	
2485.691	2.69	
2488.08	6.01	
2490.468	-2.61	
2492.854	1.04	
2495.239	4.68	
2497.623	2.03	
2500.004	3.03	
2502.384	6.01	
2504.763	7.01	
2507.14	5.68	
2509.515	2.69	
2511.889	4.68	
2514.262	3.36	
2516.633	2.03	
2519.002	3.36	
2521.369	3.69	
2523.736	4.35	
2526.1	1.37	
2528.463	1.7	
2530.825	1.7	
2533.185	5.02	
2535.543	1.04	
2537.9	3.36	
2540.255	-0.62	
2542.609	0.7	
2544.961	5.35	
2547.312	2.03	
2549.661	6.01	
2552.009	4.02	
2554.355	5.68	
2556.7	4.35	
2559.043	5.35	
2561.384	4.02	
2563.724	-1.95	
2566.063	7.67	
2568.4	6.34	
2570.735	6.34	
2573.069	3.03	
2575.402	8.33	
2577.733	3.69	
2580.062	7.34	
2582.39	4.02	
2584.716	6.01	
2587.041	4.02	
2589.364	5.35	
2591.686	0.37	
2594.006	6.34	
2596.325	5.02	
2598.643	6.01	
2600.958	1.04	
2603.273	4.35	
2605.585	0.7	
2607.897	1.7	
2610.206	4.02	
2612.515	7.34	
2614.822	2.36	
2617.127	5.02	
2619.431	1.7	
2621.733	2.03	
2624.034	6.34	
2626.333	4.68	
2628.631	4.35	
2630.927	2.69	
2633.222	6.01	
2635.515	2.03	
2637.807	7.67	
2640.098	5.35	
2642.387	2.69	
2644.674	5.68	
2646.96	1.7	
2649.245	5.02	
2651.528	3.69	
2653.809	4.02	
2656.089	3.69	
2658.368	6.67	
2660.645	5.02	
2662.921	4.02	
2665.195	4.35	
2667.468	3.03	
2669.739	3.03	
2672.009	3.03	
2674.277	5.68	
2676.544	6.01	
2678.809	3.69	
2681.073	3.03	
2683.336	7.01	
2685.597	6.34	
2687.856	3.03	
2690.115	6.01	
2692.371	8.33	
2694.626	9.33	
2696.88	12.98	
2699.133	6.01	
2701.383	7.67	
2703.633	10.65	
2705.881	6.01	
2708.127	9.99	
2710.373	6.01	
2712.616	9.99	
2714.859	9	
2717.099	6.01	
2719.339	9.33	
2721.577	7.67	
2723.813	10.65	
2726.048	8.33	
2728.282	5.35	
2730.514	13.97	
2732.745	7.34	
2734.974	9.33	
2737.202	10.99	
2739.428	9	
2741.653	11.98	
2743.877	12.98	
2746.099	12.31	
2748.32	12.64	
2750.539	13.31	
2752.757	10.65	
2754.974	11.98	
2757.189	13.64	
2759.403	14.3	
2761.615	10.99	
2763.826	11.98	
2766.035	8	
2768.243	11.32	
2770.45	13.31	
2772.655	15.96	
2774.859	11.98	
2777.062	12.98	
2779.263	12.31	
2781.462	15.96	
2783.66	14.3	
2785.857	21.6	
2788.053	18.95	
2790.247	21.27	
2792.439	16.62	
2794.631	23.26	
2796.82	18.95	
2799.009	26.91	
2801.196	25.91	
2803.382	25.25	
2805.566	24.58	
2807.749	26.57	
2809.93	26.57	
2812.11	27.9	
2814.289	29.56	
2816.466	28.56	
2818.642	34.53	
2820.817	30.89	
2822.99	33.87	
2825.162	38.85	
2827.332	35.2	
2829.502	38.18	
2831.669	41.17	
2833.836	42.83	
2836	39.51	
2838.164	38.18	
2840.326	46.14	
2842.487	46.47	
2844.647	44.15	
2846.805	47.14	
2848.961	49.13	
2851.117	51.78	
2853.271	51.78	
2855.423	57.09	
2857.575	55.1	
2859.725	59.74	
2861.873	60.73	
2864.02	67.37	
2866.166	67.37	
2868.311	67.37	
2870.454	73.34	
2872.596	70.35	
2874.736	72.01	
2876.875	75	
2879.013	77.65	
2881.149	68.03	
2883.284	73.67	
2885.418	70.02	
2887.551	80.3	
2889.682	75.66	
2891.811	77.32	
2893.94	79.64	
2896.067	82.29	
2898.192	88.59	
2900.317	93.57	
2902.439	101.53	
2904.561	115.13	
2906.681	128.06	
2908.8	147.3	
2910.918	176.49	
2913.034	189.75	
2915.149	204.68	
2917.263	191.74	
2919.375	183.78	
2921.486	161.56	
2923.596	146.64	
2925.704	125.74	
2927.811	110.82	
2929.917	95.89	
2932.021	89.59	
2934.124	77.98	
2936.226	70.68	
2938.327	70.68	
2940.426	66.7	
2942.524	61.07	
2944.62	54.1	
2946.715	52.44	
2948.809	50.78	
2950.902	44.15	
2952.993	45.48	
2955.083	40.17	
2957.171	40.84	
2959.259	39.18	
2961.345	38.51	
2963.429	40.17	
2965.513	36.19	
2967.595	34.53	
2969.676	31.55	
2971.755	28.9	
2973.833	35.2	
2975.91	29.89	
2977.986	34.53	
2980.06	35.2	
2982.133	36.52	
2984.205	36.86	
2986.275	37.19	
2988.345	39.51	
2990.412	45.81	
2992.479	49.79	
2994.544	49.46	
2996.608	55.43	
2998.671	51.78	
3000.732	54.76	
3002.792	51.45	
3004.851	52.77	
3006.909	44.48	
3008.965	46.8	
3011.02	40.5	
3013.074	38.51	
3015.126	30.55	
3017.177	30.55	
3019.227	24.58	
3021.276	21.93	
3023.323	18.28	
3025.369	19.61	
3027.414	16.96	
3029.458	17.62	
3031.5	15.96	
3033.541	11.32	
3035.581	11.32	
3037.619	10.32	
3039.656	9.33	
3041.692	9.33	
3043.727	7.34	
3045.76	10.32	
3047.793	8.66	
3049.824	8.66	
3051.853	-0.29	
3053.882	0.7	
3055.909	0.37	
